File Path	chrom://UV_VIS_2.chm
Channel	UV_VIS_2

Injection Information:
Data Vault	ChromeleonLocal
Injection	20171013_C61_ISO_P1_GA1
Injection Number	22
Position	GA1
Comment	
Processing Method	New ProcMethod
Instrument Method	HM_metode_ZorBax_0,02%_Acetic_acid_ver6
Type	Unknown
Status	Finished
Injection Date	10/13/2017
Injection Time	6:28:26 PM
Injection Volume (Âµl)	1.000
Dilution Factor	1.0000
Weight	1.0000

Raw Data Information:
Time Min. (min)	0.000000
Time Max. (min)	11.000000
Data Points	3301
Detector	UV
Exporting Data System	Chromeleon 7.1.3.2425
Operator	
Signal Quantity	Absorbance
Signal Unit	mAU
Signal Min.	-1.072552
Signal Max.	155.296276
Channel	UV_VIS_2
Driver Name	DAD3000.dll
Channel Type	Evaluation
Min. Step (s)	0.200
Max. Step (s)	0.200
Average Step (s)	0.200

Signal Parameter Information:
Signal Info	WVL:280 nm

Raw Data:
Time (min)	Step (s)	Value (mAU)
0.000000	0.000	0.000000
0.003333	0.200	-0.002496
0.006667	0.200	-0.017589
0.010000	0.200	-0.057675
0.013333	0.200	-0.119149
0.016667	0.200	-0.177967
0.020000	0.200	-0.209053
0.023333	0.200	-0.203925
0.026667	0.200	-0.170992
0.030000	0.200	-0.126449
0.033333	0.200	-0.085149
0.036667	0.200	-0.055376
0.040000	0.200	-0.038573
0.043333	0.200	-0.032417
0.046667	0.200	-0.034131
0.050000	0.200	-0.041690
0.053333	0.200	-0.053362
0.056667	0.200	-0.067385
0.060000	0.200	-0.081993
0.063333	0.200	-0.095723
0.066667	0.200	-0.108210
0.070000	0.200	-0.120127
0.073333	0.200	-0.132011
0.076667	0.200	-0.143914
0.080000	0.200	-0.156018
0.083333	0.200	-0.168563
0.086667	0.200	-0.181299
0.090000	0.200	-0.193802
0.093333	0.200	-0.206172
0.096667	0.200	-0.218781
0.100000	0.200	-0.231429
0.103333	0.200	-0.243141
0.106667	0.200	-0.252913
0.110000	0.200	-0.260681
0.113333	0.200	-0.267527
0.116667	0.200	-0.274740
0.120000	0.200	-0.282723
0.123333	0.200	-0.290937
0.126667	0.200	-0.298813
0.130000	0.200	-0.306506
0.133333	0.200	-0.314736
0.136667	0.200	-0.323975
0.140000	0.200	-0.333845
0.143333	0.200	-0.343512
0.146667	0.200	-0.352533
0.150000	0.200	-0.360938
0.153333	0.200	-0.368840
0.156667	0.200	-0.376492
0.160000	0.200	-0.384240
0.163333	0.200	-0.392187
0.166667	0.200	-0.400324
0.170000	0.200	-0.408723
0.173333	0.200	-0.417396
0.176667	0.200	-0.426430
0.180000	0.200	-0.435952
0.183333	0.200	-0.445816
0.186667	0.200	-0.455636
0.190000	0.200	-0.464902
0.193333	0.200	-0.473190
0.196667	0.200	-0.480697
0.200000	0.200	-0.488254
0.203333	0.200	-0.496693
0.206667	0.200	-0.506326
0.210000	0.200	-0.516717
0.213333	0.200	-0.527053
0.216667	0.200	-0.536663
0.220000	0.200	-0.545073
0.223333	0.200	-0.552291
0.226667	0.200	-0.559012
0.230000	0.200	-0.565805
0.233333	0.200	-0.572368
0.236667	0.200	-0.578041
0.240000	0.200	-0.582787
0.243333	0.200	-0.587251
0.246667	0.200	-0.591963
0.250000	0.200	-0.596944
0.253333	0.200	-0.602031
0.256667	0.200	-0.607220
0.260000	0.200	-0.612657
0.263333	0.200	-0.618441
0.266667	0.200	-0.624565
0.270000	0.200	-0.631115
0.273333	0.200	-0.638339
0.276667	0.200	-0.646292
0.280000	0.200	-0.654559
0.283333	0.200	-0.662476
0.286667	0.200	-0.669371
0.290000	0.200	-0.674790
0.293333	0.200	-0.679022
0.296667	0.200	-0.683331
0.300000	0.200	-0.689047
0.303333	0.200	-0.696309
0.306667	0.200	-0.703973
0.310000	0.200	-0.710846
0.313333	0.200	-0.716625
0.316667	0.200	-0.721559
0.320000	0.200	-0.725945
0.323333	0.200	-0.730159
0.326667	0.200	-0.734620
0.330000	0.200	-0.739378
0.333333	0.200	-0.743921
0.336667	0.200	-0.747699
0.340000	0.200	-0.750752
0.343333	0.200	-0.753739
0.346667	0.200	-0.757607
0.350000	0.200	-0.762853
0.353333	0.200	-0.768901
0.356667	0.200	-0.774764
0.360000	0.200	-0.780093
0.363333	0.200	-0.785071
0.366667	0.200	-0.789674
0.370000	0.200	-0.793534
0.373333	0.200	-0.796618
0.376667	0.200	-0.799469
0.380000	0.200	-0.802470
0.383333	0.200	-0.805422
0.386667	0.200	-0.808007
0.390000	0.200	-0.810237
0.393333	0.200	-0.812417
0.396667	0.200	-0.814958
0.400000	0.200	-0.818199
0.403333	0.200	-0.822113
0.406667	0.200	-0.826238
0.410000	0.200	-0.829957
0.413333	0.200	-0.832722
0.416667	0.200	-0.834264
0.420000	0.200	-0.834719
0.423333	0.200	-0.834575
0.426667	0.200	-0.834659
0.430000	0.200	-0.835904
0.433333	0.200	-0.838853
0.436667	0.200	-0.843321
0.440000	0.200	-0.848409
0.443333	0.200	-0.853112
0.446667	0.200	-0.857030
0.450000	0.200	-0.860350
0.453333	0.200	-0.863377
0.456667	0.200	-0.866148
0.460000	0.200	-0.868538
0.463333	0.200	-0.870616
0.466667	0.200	-0.872389
0.470000	0.200	-0.873615
0.473333	0.200	-0.874618
0.476667	0.200	-0.876421
0.480000	0.200	-0.879527
0.483333	0.200	-0.883379
0.486667	0.200	-0.887198
0.490000	0.200	-0.890805
0.493333	0.200	-0.894450
0.496667	0.200	-0.898244
0.500000	0.200	-0.902173
0.503333	0.200	-0.906158
0.506667	0.200	-0.909817
0.510000	0.200	-0.912695
0.513333	0.200	-0.914762
0.516667	0.200	-0.916353
0.520000	0.200	-0.917889
0.523333	0.200	-0.919785
0.526667	0.200	-0.922276
0.530000	0.200	-0.925020
0.533333	0.200	-0.927343
0.536667	0.200	-0.929252
0.540000	0.200	-0.931507
0.543333	0.200	-0.934406
0.546667	0.200	-0.937236
0.550000	0.200	-0.939323
0.553333	0.200	-0.941036
0.556667	0.200	-0.943153
0.560000	0.200	-0.946011
0.563333	0.200	-0.949586
0.566667	0.200	-0.953520
0.570000	0.200	-0.957000
0.573333	0.200	-0.959016
0.576667	0.200	-0.958892
0.580000	0.200	-0.957096
0.583333	0.200	-0.955255
0.586667	0.200	-0.954670
0.590000	0.200	-0.955143
0.593333	0.200	-0.955606
0.596667	0.200	-0.955435
0.600000	0.200	-0.954754
0.603333	0.200	-0.953982
0.606667	0.200	-0.953721
0.610000	0.200	-0.954760
0.613333	0.200	-0.957634
0.616667	0.200	-0.962111
0.620000	0.200	-0.967268
0.623333	0.200	-0.972029
0.626667	0.200	-0.975613
0.630000	0.200	-0.977823
0.633333	0.200	-0.979149
0.636667	0.200	-0.980298
0.640000	0.200	-0.981485
0.643333	0.200	-0.982558
0.646667	0.200	-0.983818
0.650000	0.200	-0.985896
0.653333	0.200	-0.988869
0.656667	0.200	-0.992231
0.660000	0.200	-0.995530
0.663333	0.200	-0.998675
0.666667	0.200	-1.001656
0.670000	0.200	-1.004186
0.673333	0.200	-1.005854
0.676667	0.200	-1.006617
0.680000	0.200	-1.007047
0.683333	0.200	-1.007916
0.686667	0.200	-1.009593
0.690000	0.200	-1.011912
0.693333	0.200	-1.014360
0.696667	0.200	-1.016324
0.700000	0.200	-1.017278
0.703333	0.200	-1.017013
0.706667	0.200	-1.015958
0.710000	0.200	-1.015014
0.713333	0.200	-1.014871
0.716667	0.200	-1.015678
0.720000	0.200	-1.017317
0.723333	0.200	-1.019573
0.726667	0.200	-1.021953
0.730000	0.200	-1.023702
0.733333	0.200	-1.024055
0.736667	0.200	-1.022766
0.740000	0.200	-1.020740
0.743333	0.200	-1.019538
0.746667	0.200	-1.020126
0.750000	0.200	-1.022491
0.753333	0.200	-1.025817
0.756667	0.200	-1.028889
0.760000	0.200	-1.030933
0.763333	0.200	-1.032045
0.766667	0.200	-1.032664
0.770000	0.200	-1.032992
0.773333	0.200	-1.033094
0.776667	0.200	-1.033173
0.780000	0.200	-1.033628
0.783333	0.200	-1.034946
0.786667	0.200	-1.037214
0.790000	0.200	-1.039860
0.793333	0.200	-1.042130
0.796667	0.200	-1.043640
0.800000	0.200	-1.044328
0.803333	0.200	-1.044164
0.806667	0.200	-1.043381
0.810000	0.200	-1.042818
0.813333	0.200	-1.043386
0.816667	0.200	-1.045180
0.820000	0.200	-1.047522
0.823333	0.200	-1.049770
0.826667	0.200	-1.051582
0.830000	0.200	-1.052587
0.833333	0.200	-1.052673
0.836667	0.200	-1.052763
0.840000	0.200	-1.054400
0.843333	0.200	-1.058196
0.846667	0.200	-1.063275
0.850000	0.200	-1.068172
0.853333	0.200	-1.071631
0.856667	0.200	-1.072552
0.860000	0.200	-1.069371
0.863333	0.200	-1.059189
0.866667	0.200	-1.037934
0.870000	0.200	-1.002228
0.873333	0.200	-0.950996
0.876667	0.200	-0.884555
0.880000	0.200	-0.802000
0.883333	0.200	-0.698358
0.886667	0.200	-0.557130
0.890000	0.200	-0.330350
0.893333	0.200	0.086463
0.896667	0.200	0.849736
0.900000	0.200	2.098635
0.903333	0.200	3.839607
0.906667	0.200	5.872486
0.910000	0.200	7.841130
0.913333	0.200	9.387769
0.916667	0.200	10.299344
0.920000	0.200	10.556807
0.923333	0.200	10.289253
0.926667	0.200	9.691032
0.930000	0.200	8.949947
0.933333	0.200	8.200602
0.936667	0.200	7.502864
0.940000	0.200	6.848229
0.943333	0.200	6.192125
0.946667	0.200	5.495534
0.950000	0.200	4.752844
0.953333	0.200	3.994674
0.956667	0.200	3.271856
0.960000	0.200	2.634448
0.963333	0.200	2.117181
0.966667	0.200	1.735502
0.970000	0.200	1.489531
0.973333	0.200	1.370309
0.976667	0.200	1.363626
0.980000	0.200	1.449958
0.983333	0.200	1.602598
0.986667	0.200	1.787886
0.990000	0.200	1.970428
0.993333	0.200	2.121963
0.996667	0.200	2.228262
1.000000	0.200	2.290101
1.003333	0.200	2.319788
1.006667	0.200	2.336386
1.010000	0.200	2.360833
1.013333	0.200	2.411637
1.016667	0.200	2.501481
1.020000	0.200	2.633168
1.023333	0.200	2.794762
1.026667	0.200	2.958216
1.030000	0.200	3.085855
1.033333	0.200	3.143232
1.036667	0.200	3.111726
1.040000	0.200	2.995082
1.043333	0.200	2.818193
1.046667	0.200	2.619547
1.050000	0.200	2.441157
1.053333	0.200	2.320691
1.056667	0.200	2.287915
1.060000	0.200	2.363937
1.063333	0.200	2.560547
1.066667	0.200	2.878845
1.070000	0.200	3.308909
1.073333	0.200	3.831074
1.076667	0.200	4.417737
1.080000	0.200	5.035315
1.083333	0.200	5.646066
1.086667	0.200	6.210613
1.090000	0.200	6.693888
1.093333	0.200	7.075017
1.096667	0.200	7.358195
1.100000	0.200	7.579513
1.103333	0.200	7.802638
1.106667	0.200	8.099304
1.110000	0.200	8.520239
1.113333	0.200	9.069365
1.116667	0.200	9.693847
1.120000	0.200	10.296719
1.123333	0.200	10.768139
1.126667	0.200	11.020745
1.130000	0.200	11.012831
1.133333	0.200	10.751324
1.136667	0.200	10.277611
1.140000	0.200	9.646584
1.143333	0.200	8.909787
1.146667	0.200	8.108669
1.150000	0.200	7.277198
1.153333	0.200	6.447975
1.156667	0.200	5.655354
1.160000	0.200	4.933051
1.163333	0.200	4.307973
1.166667	0.200	3.793869
1.170000	0.200	3.388178
1.173333	0.200	3.073814
1.176667	0.200	2.825518
1.180000	0.200	2.617959
1.183333	0.200	2.431846
1.186667	0.200	2.256327
1.190000	0.200	2.088495
1.193333	0.200	1.931758
1.196667	0.200	1.794281
1.200000	0.200	1.688194
1.203333	0.200	1.629350
1.206667	0.200	1.635287
1.210000	0.200	1.719613
1.213333	0.200	1.884178
1.216667	0.200	2.112454
1.220000	0.200	2.368300
1.223333	0.200	2.602473
1.226667	0.200	2.765095
1.230000	0.200	2.819652
1.233333	0.200	2.753655
1.236667	0.200	2.582057
1.240000	0.200	2.342838
1.243333	0.200	2.087167
1.246667	0.200	1.866920
1.250000	0.200	1.722498
1.253333	0.200	1.674222
1.256667	0.200	1.719272
1.260000	0.200	1.835652
1.263333	0.200	1.995123
1.266667	0.200	2.183412
1.270000	0.200	2.418550
1.273333	0.200	2.759191
1.276667	0.200	3.305311
1.280000	0.200	4.190552
1.283333	0.200	5.547001
1.286667	0.200	7.428851
1.290000	0.200	9.723847
1.293333	0.200	12.117675
1.296667	0.200	14.160756
1.300000	0.200	15.420743
1.303333	0.200	15.641841
1.306667	0.200	14.827136
1.310000	0.200	13.211229
1.313333	0.200	11.153954
1.316667	0.200	9.017246
1.320000	0.200	7.075704
1.323333	0.200	5.480658
1.326667	0.200	4.271017
1.330000	0.200	3.409565
1.333333	0.200	2.822750
1.336667	0.200	2.431597
1.340000	0.200	2.170174
1.343333	0.200	1.991977
1.346667	0.200	1.868020
1.350000	0.200	1.782128
1.353333	0.200	1.726321
1.356667	0.200	1.696923
1.360000	0.200	1.691689
1.363333	0.200	1.708168
1.366667	0.200	1.743510
1.370000	0.200	1.794873
1.373333	0.200	1.859289
1.376667	0.200	1.933215
1.380000	0.200	2.012196
1.383333	0.200	2.090836
1.386667	0.200	2.163238
1.390000	0.200	2.223307
1.393333	0.200	2.264896
1.396667	0.200	2.282623
1.400000	0.200	2.272793
1.403333	0.200	2.233480
1.406667	0.200	2.164429
1.410000	0.200	2.067356
1.413333	0.200	1.946109
1.416667	0.200	1.806374
1.420000	0.200	1.655171
1.423333	0.200	1.500038
1.426667	0.200	1.347736
1.430000	0.200	1.203365
1.433333	0.200	1.070393
1.436667	0.200	0.950831
1.440000	0.200	0.845261
1.443333	0.200	0.753372
1.446667	0.200	0.674969
1.450000	0.200	0.610504
1.453333	0.200	0.561110
1.456667	0.200	0.528404
1.460000	0.200	0.513271
1.463333	0.200	0.514345
1.466667	0.200	0.528267
1.470000	0.200	0.551284
1.473333	0.200	0.580269
1.476667	0.200	0.612592
1.480000	0.200	0.645812
1.483333	0.200	0.678400
1.486667	0.200	0.710846
1.490000	0.200	0.745308
1.493333	0.200	0.784064
1.496667	0.200	0.828493
1.500000	0.200	0.879059
1.503333	0.200	0.935424
1.506667	0.200	0.996075
1.510000	0.200	1.058108
1.513333	0.200	1.117741
1.516667	0.200	1.170915
1.520000	0.200	1.213742
1.523333	0.200	1.243385
1.526667	0.200	1.259144
1.530000	0.200	1.262859
1.533333	0.200	1.258358
1.536667	0.200	1.250543
1.540000	0.200	1.244425
1.543333	0.200	1.243877
1.546667	0.200	1.250624
1.550000	0.200	1.264058
1.553333	0.200	1.281438
1.556667	0.200	1.298148
1.560000	0.200	1.308501
1.563333	0.200	1.307113
1.566667	0.200	1.289646
1.570000	0.200	1.252676
1.573333	0.200	1.194015
1.576667	0.200	1.113574
1.580000	0.200	1.013514
1.583333	0.200	0.897769
1.586667	0.200	0.771445
1.590000	0.200	0.639972
1.593333	0.200	0.508428
1.596667	0.200	0.381207
1.600000	0.200	0.261657
1.603333	0.200	0.151957
1.606667	0.200	0.053207
1.610000	0.200	-0.034449
1.613333	0.200	-0.111564
1.616667	0.200	-0.179352
1.620000	0.200	-0.239586
1.623333	0.200	-0.293880
1.626667	0.200	-0.342896
1.630000	0.200	-0.386151
1.633333	0.200	-0.422750
1.636667	0.200	-0.452493
1.640000	0.200	-0.475865
1.643333	0.200	-0.493155
1.646667	0.200	-0.504485
1.650000	0.200	-0.510528
1.653333	0.200	-0.512453
1.656667	0.200	-0.511164
1.660000	0.200	-0.506852
1.663333	0.200	-0.499160
1.666667	0.200	-0.487597
1.670000	0.200	-0.472010
1.673333	0.200	-0.452609
1.676667	0.200	-0.429340
1.680000	0.200	-0.401472
1.683333	0.200	-0.367808
1.686667	0.200	-0.327208
1.690000	0.200	-0.279398
1.693333	0.200	-0.225451
1.696667	0.200	-0.167242
1.700000	0.200	-0.106336
1.703333	0.200	-0.043391
1.706667	0.200	0.021209
1.710000	0.200	0.086192
1.713333	0.200	0.149426
1.716667	0.200	0.208944
1.720000	0.200	0.263495
1.723333	0.200	0.312338
1.726667	0.200	0.354649
1.730000	0.200	0.388811
1.733333	0.200	0.412448
1.736667	0.200	0.423595
1.740000	0.200	0.421669
1.743333	0.200	0.407058
1.746667	0.200	0.380225
1.750000	0.200	0.341556
1.753333	0.200	0.291628
1.756667	0.200	0.231308
1.760000	0.200	0.162001
1.763333	0.200	0.086253
1.766667	0.200	0.008120
1.770000	0.200	-0.067012
1.773333	0.200	-0.132457
1.776667	0.200	-0.179763
1.780000	0.200	-0.197741
1.783333	0.200	-0.171309
1.786667	0.200	-0.081522
1.790000	0.200	0.091779
1.793333	0.200	0.364233
1.796667	0.200	0.739796
1.800000	0.200	1.205375
1.803333	0.200	1.729817
1.806667	0.200	2.268083
1.810000	0.200	2.769618
1.813333	0.200	3.188409
1.816667	0.200	3.491239
1.820000	0.200	3.661695
1.823333	0.200	3.700057
1.826667	0.200	3.620389
1.830000	0.200	3.445791
1.833333	0.200	3.202832
1.836667	0.200	2.917271
1.840000	0.200	2.612388
1.843333	0.200	2.308535
1.846667	0.200	2.022462
1.850000	0.200	1.766974
1.853333	0.200	1.551623
1.856667	0.200	1.383673
1.860000	0.200	1.268012
1.863333	0.200	1.206184
1.866667	0.200	1.195579
1.870000	0.200	1.229179
1.873333	0.200	1.295988
1.876667	0.200	1.381790
1.880000	0.200	1.469967
1.883333	0.200	1.542845
1.886667	0.200	1.583918
1.890000	0.200	1.580579
1.893333	0.200	1.526320
1.896667	0.200	1.421320
1.900000	0.200	1.271308
1.903333	0.200	1.085571
1.906667	0.200	0.875169
1.910000	0.200	0.651945
1.913333	0.200	0.427878
1.916667	0.200	0.213830
1.920000	0.200	0.017912
1.923333	0.200	-0.155059
1.926667	0.200	-0.302840
1.930000	0.200	-0.425252
1.933333	0.200	-0.524107
1.936667	0.200	-0.602759
1.940000	0.200	-0.665108
1.943333	0.200	-0.714539
1.946667	0.200	-0.753177
1.950000	0.200	-0.781457
1.953333	0.200	-0.798145
1.956667	0.200	-0.800813
1.960000	0.200	-0.785759
1.963333	0.200	-0.746570
1.966667	0.200	-0.672113
1.970000	0.200	-0.545455
1.973333	0.200	-0.343980
1.976667	0.200	-0.039320
1.980000	0.200	0.403073
1.983333	0.200	1.022320
1.986667	0.200	1.857421
1.990000	0.200	2.941097
1.993333	0.200	4.293142
1.996667	0.200	5.913472
2.000000	0.200	7.776126
2.003333	0.200	9.825408
2.006667	0.200	11.975204
2.010000	0.200	14.113188
2.013333	0.200	16.110338
2.016667	0.200	17.834516
2.020000	0.200	19.166029
2.023333	0.200	20.012650
2.026667	0.200	20.321123
2.030000	0.200	20.082801
2.033333	0.200	19.333004
2.036667	0.200	18.145051
2.040000	0.200	16.619685
2.043333	0.200	14.871567
2.046667	0.200	13.015623
2.050000	0.200	11.155450
2.053333	0.200	9.375152
2.056667	0.200	7.735605
2.060000	0.200	6.274573
2.063333	0.200	5.008819
2.066667	0.200	3.937565
2.070000	0.200	3.047502
2.073333	0.200	2.318141
2.076667	0.200	1.726133
2.080000	0.200	1.248268
2.083333	0.200	0.863164
2.086667	0.200	0.552081
2.090000	0.200	0.299716
2.093333	0.200	0.094284
2.096667	0.200	-0.073561
2.100000	0.200	-0.211308
2.103333	0.200	-0.324475
2.106667	0.200	-0.417088
2.110000	0.200	-0.492577
2.113333	0.200	-0.554067
2.116667	0.200	-0.604100
2.120000	0.200	-0.644790
2.123333	0.200	-0.678339
2.126667	0.200	-0.706831
2.130000	0.200	-0.731476
2.133333	0.200	-0.752416
2.136667	0.200	-0.769258
2.140000	0.200	-0.781987
2.143333	0.200	-0.791536
2.146667	0.200	-0.799272
2.150000	0.200	-0.806039
2.153333	0.200	-0.811905
2.156667	0.200	-0.816474
2.160000	0.200	-0.819481
2.163333	0.200	-0.821298
2.166667	0.200	-0.822464
2.170000	0.200	-0.823084
2.173333	0.200	-0.823148
2.176667	0.200	-0.822620
2.180000	0.200	-0.821202
2.183333	0.200	-0.818718
2.186667	0.200	-0.815490
2.190000	0.200	-0.812340
2.193333	0.200	-0.810511
2.196667	0.200	-0.810954
2.200000	0.200	-0.812998
2.203333	0.200	-0.814395
2.206667	0.200	-0.813035
2.210000	0.200	-0.807929
2.213333	0.200	-0.798643
2.216667	0.200	-0.784483
2.220000	0.200	-0.763672
2.223333	0.200	-0.732034
2.226667	0.200	-0.681044
2.230000	0.200	-0.594655
2.233333	0.200	-0.445329
2.236667	0.200	-0.193095
2.240000	0.200	0.207373
2.243333	0.200	0.790827
2.246667	0.200	1.562903
2.250000	0.200	2.487539
2.253333	0.200	3.483996
2.256667	0.200	4.434273
2.260000	0.200	5.202613
2.263333	0.200	5.666222
2.266667	0.200	5.749548
2.270000	0.200	5.448070
2.273333	0.200	4.829571
2.276667	0.200	4.012881
2.280000	0.200	3.134608
2.283333	0.200	2.317140
2.286667	0.200	1.647861
2.290000	0.200	1.173005
2.293333	0.200	0.903792
2.296667	0.200	0.828540
2.300000	0.200	0.924666
2.303333	0.200	1.167850
2.306667	0.200	1.537084
2.310000	0.200	2.015634
2.313333	0.200	2.589508
2.316667	0.200	3.245154
2.320000	0.200	3.967499
2.323333	0.200	4.738575
2.326667	0.200	5.537438
2.330000	0.200	6.341833
2.333333	0.200	7.129853
2.336667	0.200	7.880563
2.340000	0.200	8.574607
2.343333	0.200	9.195108
2.346667	0.200	9.728251
2.350000	0.200	10.163722
2.353333	0.200	10.495318
2.356667	0.200	10.721265
2.360000	0.200	10.843834
2.363333	0.200	10.868438
2.366667	0.200	10.802616
2.370000	0.200	10.655334
2.373333	0.200	10.436781
2.376667	0.200	10.157880
2.380000	0.200	9.829469
2.383333	0.200	9.462022
2.386667	0.200	9.065953
2.390000	0.200	8.651966
2.393333	0.200	8.230542
2.396667	0.200	7.810633
2.400000	0.200	7.399343
2.403333	0.200	7.002781
2.406667	0.200	6.626281
2.410000	0.200	6.273703
2.413333	0.200	5.947605
2.416667	0.200	5.650255
2.420000	0.200	5.383614
2.423333	0.200	5.148489
2.426667	0.200	4.944468
2.430000	0.200	4.770449
2.433333	0.200	4.625103
2.436667	0.200	4.507589
2.440000	0.200	4.417828
2.443333	0.200	4.355862
2.446667	0.200	4.321473
2.450000	0.200	4.314503
2.453333	0.200	4.335120
2.456667	0.200	4.383670
2.460000	0.200	4.460500
2.463333	0.200	4.566323
2.466667	0.200	4.702204
2.470000	0.200	4.868266
2.473333	0.200	5.062663
2.476667	0.200	5.282155
2.480000	0.200	5.523070
2.483333	0.200	5.781091
2.486667	0.200	6.050094
2.490000	0.200	6.321356
2.493333	0.200	6.583242
2.496667	0.200	6.821187
2.500000	0.200	7.018955
2.503333	0.200	7.161025
2.506667	0.200	7.234770
2.510000	0.200	7.231661
2.513333	0.200	7.147561
2.516667	0.200	6.983019
2.520000	0.200	6.743719
2.523333	0.200	6.440117
2.526667	0.200	6.086387
2.530000	0.200	5.699206
2.533333	0.200	5.295951
2.536667	0.200	4.892595
2.540000	0.200	4.502261
2.543333	0.200	4.134067
2.546667	0.200	3.792171
2.550000	0.200	3.476235
2.553333	0.200	3.183149
2.556667	0.200	2.908411
2.560000	0.200	2.647198
2.563333	0.200	2.395620
2.566667	0.200	2.151477
2.570000	0.200	1.914223
2.573333	0.200	1.684723
2.576667	0.200	1.465152
2.580000	0.200	1.258525
2.583333	0.200	1.067766
2.586667	0.200	0.894973
2.590000	0.200	0.741090
2.593333	0.200	0.606098
2.596667	0.200	0.489380
2.600000	0.200	0.389568
2.603333	0.200	0.304282
2.606667	0.200	0.230634
2.610000	0.200	0.166043
2.613333	0.200	0.108417
2.616667	0.200	0.056136
2.620000	0.200	0.008503
2.623333	0.200	-0.034134
2.626667	0.200	-0.071106
2.630000	0.200	-0.102111
2.633333	0.200	-0.127013
2.636667	0.200	-0.145030
2.640000	0.200	-0.154432
2.643333	0.200	-0.153189
2.646667	0.200	-0.139912
2.650000	0.200	-0.114620
2.653333	0.200	-0.078788
2.656667	0.200	-0.034700
2.660000	0.200	0.014604
2.663333	0.200	0.064955
2.666667	0.200	0.111411
2.670000	0.200	0.148708
2.673333	0.200	0.171710
2.676667	0.200	0.176806
2.680000	0.200	0.163451
2.683333	0.200	0.133859
2.686667	0.200	0.091344
2.690000	0.200	0.039652
2.693333	0.200	-0.016852
2.696667	0.200	-0.073769
2.700000	0.200	-0.127613
2.703333	0.200	-0.176047
2.706667	0.200	-0.217659
2.710000	0.200	-0.251762
2.713333	0.200	-0.278253
2.716667	0.200	-0.297715
2.720000	0.200	-0.311848
2.723333	0.200	-0.323419
2.726667	0.200	-0.335241
2.730000	0.200	-0.349225
2.733333	0.200	-0.366289
2.736667	0.200	-0.386583
2.740000	0.200	-0.409532
2.743333	0.200	-0.433858
2.746667	0.200	-0.457970
2.750000	0.200	-0.480467
2.753333	0.200	-0.500113
2.756667	0.200	-0.515637
2.760000	0.200	-0.526155
2.763333	0.200	-0.531779
2.766667	0.200	-0.533638
2.770000	0.200	-0.533276
2.773333	0.200	-0.532004
2.776667	0.200	-0.530658
2.780000	0.200	-0.529651
2.783333	0.200	-0.529250
2.786667	0.200	-0.529654
2.790000	0.200	-0.530857
2.793333	0.200	-0.532920
2.796667	0.200	-0.536184
2.800000	0.200	-0.541015
2.803333	0.200	-0.547984
2.806667	0.200	-0.558011
2.810000	0.200	-0.571519
2.813333	0.200	-0.587726
2.816667	0.200	-0.605261
2.820000	0.200	-0.623243
2.823333	0.200	-0.641333
2.826667	0.200	-0.658815
2.830000	0.200	-0.674298
2.833333	0.200	-0.686605
2.836667	0.200	-0.695665
2.840000	0.200	-0.702422
2.843333	0.200	-0.708124
2.846667	0.200	-0.713740
2.850000	0.200	-0.719616
2.853333	0.200	-0.725321
2.856667	0.200	-0.730049
2.860000	0.200	-0.733052
2.863333	0.200	-0.733435
2.866667	0.200	-0.730059
2.870000	0.200	-0.721943
2.873333	0.200	-0.708667
2.876667	0.200	-0.690784
2.880000	0.200	-0.669902
2.883333	0.200	-0.647782
2.886667	0.200	-0.625269
2.890000	0.200	-0.602366
2.893333	0.200	-0.579353
2.896667	0.200	-0.557732
2.900000	0.200	-0.539826
2.903333	0.200	-0.527212
2.906667	0.200	-0.519744
2.910000	0.200	-0.516260
2.913333	0.200	-0.515542
2.916667	0.200	-0.516084
2.920000	0.200	-0.515738
2.923333	0.200	-0.512449
2.926667	0.200	-0.505203
2.930000	0.200	-0.494451
2.933333	0.200	-0.482155
2.936667	0.200	-0.470907
2.940000	0.200	-0.462531
2.943333	0.200	-0.457759
2.946667	0.200	-0.456873
2.950000	0.200	-0.460121
2.953333	0.200	-0.467768
2.956667	0.200	-0.479839
2.960000	0.200	-0.495617
2.963333	0.200	-0.513692
2.966667	0.200	-0.532650
2.970000	0.200	-0.551383
2.973333	0.200	-0.568718
2.976667	0.200	-0.583402
2.980000	0.200	-0.594897
2.983333	0.200	-0.603485
2.986667	0.200	-0.609051
2.990000	0.200	-0.610683
2.993333	0.200	-0.607652
2.996667	0.200	-0.599831
3.000000	0.200	-0.587602
3.003333	0.200	-0.572063
3.006667	0.200	-0.554781
3.010000	0.200	-0.537202
3.013333	0.200	-0.520405
3.016667	0.200	-0.505040
3.020000	0.200	-0.491647
3.023333	0.200	-0.481069
3.026667	0.200	-0.474381
3.030000	0.200	-0.472651
3.033333	0.200	-0.476608
3.036667	0.200	-0.486309
3.040000	0.200	-0.501286
3.043333	0.200	-0.520777
3.046667	0.200	-0.543554
3.050000	0.200	-0.567758
3.053333	0.200	-0.591096
3.056667	0.200	-0.611580
3.060000	0.200	-0.628454
3.063333	0.200	-0.642263
3.066667	0.200	-0.653976
3.070000	0.200	-0.664256
3.073333	0.200	-0.673172
3.076667	0.200	-0.680383
3.080000	0.200	-0.685965
3.083333	0.200	-0.690857
3.086667	0.200	-0.696106
3.090000	0.200	-0.701906
3.093333	0.200	-0.707514
3.096667	0.200	-0.711959
3.100000	0.200	-0.714843
3.103333	0.200	-0.716532
3.106667	0.200	-0.717380
3.110000	0.200	-0.717028
3.113333	0.200	-0.715283
3.116667	0.200	-0.713127
3.120000	0.200	-0.711838
3.123333	0.200	-0.711673
3.126667	0.200	-0.711910
3.130000	0.200	-0.711687
3.133333	0.200	-0.710346
3.136667	0.200	-0.707258
3.140000	0.200	-0.701684
3.143333	0.200	-0.692775
3.146667	0.200	-0.679771
3.150000	0.200	-0.662447
3.153333	0.200	-0.641539
3.156667	0.200	-0.618730
3.160000	0.200	-0.596071
3.163333	0.200	-0.575365
3.166667	0.200	-0.558051
3.170000	0.200	-0.545308
3.173333	0.200	-0.537873
3.176667	0.200	-0.535786
3.180000	0.200	-0.538564
3.183333	0.200	-0.545446
3.186667	0.200	-0.555173
3.190000	0.200	-0.566140
3.193333	0.200	-0.577072
3.196667	0.200	-0.587087
3.200000	0.200	-0.595506
3.203333	0.200	-0.602052
3.206667	0.200	-0.606904
3.210000	0.200	-0.610485
3.213333	0.200	-0.613460
3.216667	0.200	-0.616633
3.220000	0.200	-0.620412
3.223333	0.200	-0.624527
3.226667	0.200	-0.628294
3.230000	0.200	-0.631122
3.233333	0.200	-0.633115
3.236667	0.200	-0.634904
3.240000	0.200	-0.636465
3.243333	0.200	-0.636744
3.246667	0.200	-0.634437
3.250000	0.200	-0.628323
3.253333	0.200	-0.617023
3.256667	0.200	-0.599000
3.260000	0.200	-0.572653
3.263333	0.200	-0.536391
3.266667	0.200	-0.488884
3.270000	0.200	-0.429450
3.273333	0.200	-0.358493
3.276667	0.200	-0.277623
3.280000	0.200	-0.189272
3.283333	0.200	-0.096382
3.286667	0.200	-0.002532
3.290000	0.200	0.088001
3.293333	0.200	0.170770
3.296667	0.200	0.241795
3.300000	0.200	0.297722
3.303333	0.200	0.335822
3.306667	0.200	0.354371
3.310000	0.200	0.353146
3.313333	0.200	0.333590
3.316667	0.200	0.298415
3.320000	0.200	0.250962
3.323333	0.200	0.194755
3.326667	0.200	0.133353
3.330000	0.200	0.070459
3.333333	0.200	0.009600
3.336667	0.200	-0.046660
3.340000	0.200	-0.096831
3.343333	0.200	-0.140164
3.346667	0.200	-0.176645
3.350000	0.200	-0.206527
3.353333	0.200	-0.229075
3.356667	0.200	-0.241159
3.360000	0.200	-0.234358
3.363333	0.200	-0.188083
3.366667	0.200	-0.056676
3.370000	0.200	0.251453
3.373333	0.200	0.902269
3.376667	0.200	2.166129
3.380000	0.200	4.437181
3.383333	0.200	8.225128
3.386667	0.200	14.102037
3.390000	0.200	22.597182
3.393333	0.200	34.053446
3.396667	0.200	48.479753
3.400000	0.200	65.444898
3.403333	0.200	84.052732
3.406667	0.200	103.018107
3.410000	0.200	120.835669
3.413333	0.200	136.007187
3.416667	0.200	147.274973
3.420000	0.200	153.807185
3.423333	0.200	155.296276
3.426667	0.200	151.957578
3.430000	0.200	144.441330
3.433333	0.200	133.689329
3.436667	0.200	120.773098
3.440000	0.200	106.746360
3.443333	0.200	92.534133
3.446667	0.200	78.867430
3.450000	0.200	66.260586
3.453333	0.200	55.021493
3.456667	0.200	45.282605
3.460000	0.200	37.041171
3.463333	0.200	30.200949
3.466667	0.200	24.610320
3.470000	0.200	20.092690
3.473333	0.200	16.467847
3.476667	0.200	13.565959
3.480000	0.200	11.236415
3.483333	0.200	9.352795
3.486667	0.200	7.814273
3.490000	0.200	6.543744
3.493333	0.200	5.483912
3.496667	0.200	4.592769
3.500000	0.200	3.839294
3.503333	0.200	3.200232
3.506667	0.200	2.658135
3.510000	0.200	2.199743
3.513333	0.200	1.814378
3.516667	0.200	1.492508
3.520000	0.200	1.224859
3.523333	0.200	1.002568
3.526667	0.200	0.817808
3.530000	0.200	0.663969
3.533333	0.200	0.535315
3.536667	0.200	0.426722
3.540000	0.200	0.333631
3.543333	0.200	0.251929
3.546667	0.200	0.178296
3.550000	0.200	0.111066
3.553333	0.200	0.050276
3.556667	0.200	-0.003223
3.560000	0.200	-0.048383
3.563333	0.200	-0.084069
3.566667	0.200	-0.109245
3.570000	0.200	-0.123277
3.573333	0.200	-0.125938
3.576667	0.200	-0.117254
3.580000	0.200	-0.097569
3.583333	0.200	-0.067875
3.586667	0.200	-0.030268
3.590000	0.200	0.012069
3.593333	0.200	0.055449
3.596667	0.200	0.096014
3.600000	0.200	0.129866
3.603333	0.200	0.153476
3.606667	0.200	0.163988
3.610000	0.200	0.159475
3.613333	0.200	0.139377
3.616667	0.200	0.104537
3.620000	0.200	0.056927
3.623333	0.200	-0.000382
3.626667	0.200	-0.063369
3.630000	0.200	-0.127847
3.633333	0.200	-0.190228
3.636667	0.200	-0.247760
3.640000	0.200	-0.298897
3.643333	0.200	-0.343503
3.646667	0.200	-0.382084
3.650000	0.200	-0.415059
3.653333	0.200	-0.442792
3.656667	0.200	-0.465864
3.660000	0.200	-0.485382
3.663333	0.200	-0.502745
3.666667	0.200	-0.518688
3.670000	0.200	-0.532867
3.673333	0.200	-0.544683
3.676667	0.200	-0.554084
3.680000	0.200	-0.561409
3.683333	0.200	-0.567128
3.686667	0.200	-0.571836
3.690000	0.200	-0.575932
3.693333	0.200	-0.579434
3.696667	0.200	-0.582340
3.700000	0.200	-0.584864
3.703333	0.200	-0.587212
3.706667	0.200	-0.589258
3.710000	0.200	-0.590725
3.713333	0.200	-0.591509
3.716667	0.200	-0.591332
3.720000	0.200	-0.589575
3.723333	0.200	-0.586095
3.726667	0.200	-0.581539
3.730000	0.200	-0.576510
3.733333	0.200	-0.571021
3.736667	0.200	-0.564779
3.740000	0.200	-0.557776
3.743333	0.200	-0.550892
3.746667	0.200	-0.545675
3.750000	0.200	-0.543082
3.753333	0.200	-0.542708
3.756667	0.200	-0.543297
3.760000	0.200	-0.543763
3.763333	0.200	-0.544142
3.766667	0.200	-0.545475
3.770000	0.200	-0.548405
3.773333	0.200	-0.552513
3.776667	0.200	-0.557057
3.780000	0.200	-0.561708
3.783333	0.200	-0.566775
3.786667	0.200	-0.572912
3.790000	0.200	-0.580462
3.793333	0.200	-0.589252
3.796667	0.200	-0.599000
3.800000	0.200	-0.609569
3.803333	0.200	-0.620567
3.806667	0.200	-0.630989
3.810000	0.200	-0.639576
3.813333	0.200	-0.645111
3.816667	0.200	-0.646148
3.820000	0.200	-0.640890
3.823333	0.200	-0.627255
3.826667	0.200	-0.602701
3.830000	0.200	-0.564019
3.833333	0.200	-0.507323
3.836667	0.200	-0.428680
3.840000	0.200	-0.325239
3.843333	0.200	-0.195726
3.846667	0.200	-0.040449
3.850000	0.200	0.138327
3.853333	0.200	0.335966
3.856667	0.200	0.545428
3.860000	0.200	0.757376
3.863333	0.200	0.960566
3.866667	0.200	1.143016
3.870000	0.200	1.293475
3.873333	0.200	1.402323
3.876667	0.200	1.462236
3.880000	0.200	1.469289
3.883333	0.200	1.424120
3.886667	0.200	1.331883
3.890000	0.200	1.200928
3.893333	0.200	1.041289
3.896667	0.200	0.863370
3.900000	0.200	0.677280
3.903333	0.200	0.492596
3.906667	0.200	0.317326
3.910000	0.200	0.156737
3.913333	0.200	0.013522
3.916667	0.200	-0.111551
3.920000	0.200	-0.219158
3.923333	0.200	-0.310573
3.926667	0.200	-0.386836
3.930000	0.200	-0.448745
3.933333	0.200	-0.497418
3.936667	0.200	-0.534585
3.940000	0.200	-0.562402
3.943333	0.200	-0.583180
3.946667	0.200	-0.598936
3.950000	0.200	-0.610827
3.953333	0.200	-0.619112
3.956667	0.200	-0.624078
3.960000	0.200	-0.627028
3.963333	0.200	-0.629900
3.966667	0.200	-0.633733
3.970000	0.200	-0.637897
3.973333	0.200	-0.641134
3.976667	0.200	-0.643099
3.980000	0.200	-0.644645
3.983333	0.200	-0.646992
3.986667	0.200	-0.650982
3.990000	0.200	-0.656805
3.993333	0.200	-0.663981
3.996667	0.200	-0.671573
4.000000	0.200	-0.678577
4.003333	0.200	-0.684237
4.006667	0.200	-0.688240
4.010000	0.200	-0.690758
4.013333	0.200	-0.692275
4.016667	0.200	-0.693304
4.020000	0.200	-0.694243
4.023333	0.200	-0.695450
4.026667	0.200	-0.697186
4.030000	0.200	-0.699186
4.033333	0.200	-0.700640
4.036667	0.200	-0.701196
4.040000	0.200	-0.701582
4.043333	0.200	-0.702880
4.046667	0.200	-0.705766
4.050000	0.200	-0.710295
4.053333	0.200	-0.715644
4.056667	0.200	-0.720396
4.060000	0.200	-0.723737
4.063333	0.200	-0.726233
4.066667	0.200	-0.729130
4.070000	0.200	-0.732868
4.073333	0.200	-0.736278
4.076667	0.200	-0.737459
4.080000	0.200	-0.735462
4.083333	0.200	-0.730889
4.086667	0.200	-0.725141
4.090000	0.200	-0.719428
4.093333	0.200	-0.714330
4.096667	0.200	-0.709993
4.100000	0.200	-0.706470
4.103333	0.200	-0.703730
4.106667	0.200	-0.701861
4.110000	0.200	-0.701274
4.113333	0.200	-0.702260
4.116667	0.200	-0.704601
4.120000	0.200	-0.707818
4.123333	0.200	-0.711564
4.126667	0.200	-0.715555
4.130000	0.200	-0.719293
4.133333	0.200	-0.722314
4.136667	0.200	-0.724493
4.140000	0.200	-0.725738
4.143333	0.200	-0.725803
4.146667	0.200	-0.724900
4.150000	0.200	-0.724083
4.153333	0.200	-0.724351
4.156667	0.200	-0.725707
4.160000	0.200	-0.727447
4.163333	0.200	-0.728898
4.166667	0.200	-0.729749
4.170000	0.200	-0.730100
4.173333	0.200	-0.730345
4.176667	0.200	-0.730822
4.180000	0.200	-0.731473
4.183333	0.200	-0.732027
4.186667	0.200	-0.732304
4.190000	0.200	-0.732265
4.193333	0.200	-0.732149
4.196667	0.200	-0.732469
4.200000	0.200	-0.733706
4.203333	0.200	-0.735960
4.206667	0.200	-0.738777
4.210000	0.200	-0.741491
4.213333	0.200	-0.743747
4.216667	0.200	-0.745682
4.220000	0.200	-0.747698
4.223333	0.200	-0.750011
4.226667	0.200	-0.752392
4.230000	0.200	-0.754444
4.233333	0.200	-0.756104
4.236667	0.200	-0.757596
4.240000	0.200	-0.758905
4.243333	0.200	-0.759581
4.246667	0.200	-0.758962
4.250000	0.200	-0.756627
4.253333	0.200	-0.752653
4.256667	0.200	-0.747469
4.260000	0.200	-0.741647
4.263333	0.200	-0.735719
4.266667	0.200	-0.730024
4.270000	0.200	-0.724689
4.273333	0.200	-0.719635
4.276667	0.200	-0.714737
4.280000	0.200	-0.710071
4.283333	0.200	-0.706050
4.286667	0.200	-0.703433
4.290000	0.200	-0.702878
4.293333	0.200	-0.704430
4.296667	0.200	-0.707623
4.300000	0.200	-0.711754
4.303333	0.200	-0.716238
4.306667	0.200	-0.720984
4.310000	0.200	-0.726028
4.313333	0.200	-0.730940
4.316667	0.200	-0.735044
4.320000	0.200	-0.738274
4.323333	0.200	-0.741443
4.326667	0.200	-0.745360
4.330000	0.200	-0.750102
4.333333	0.200	-0.755213
4.336667	0.200	-0.760225
4.340000	0.200	-0.765017
4.343333	0.200	-0.769672
4.346667	0.200	-0.774097
4.350000	0.200	-0.778182
4.353333	0.200	-0.782035
4.356667	0.200	-0.785552
4.360000	0.200	-0.788187
4.363333	0.200	-0.789461
4.366667	0.200	-0.789372
4.370000	0.200	-0.788260
4.373333	0.200	-0.786715
4.376667	0.200	-0.785635
4.380000	0.200	-0.785826
4.383333	0.200	-0.787471
4.386667	0.200	-0.789968
4.390000	0.200	-0.792120
4.393333	0.200	-0.792997
4.396667	0.200	-0.792538
4.400000	0.200	-0.791189
4.403333	0.200	-0.789657
4.406667	0.200	-0.788773
4.410000	0.200	-0.788942
4.413333	0.200	-0.789967
4.416667	0.200	-0.791271
4.420000	0.200	-0.791959
4.423333	0.200	-0.791123
4.426667	0.200	-0.788628
4.430000	0.200	-0.785400
4.433333	0.200	-0.782413
4.436667	0.200	-0.779366
4.440000	0.200	-0.774985
4.443333	0.200	-0.768603
4.446667	0.200	-0.760704
4.450000	0.200	-0.752031
4.453333	0.200	-0.742942
4.456667	0.200	-0.733340
4.460000	0.200	-0.722737
4.463333	0.200	-0.710563
4.466667	0.200	-0.696552
4.470000	0.200	-0.680826
4.473333	0.200	-0.663633
4.476667	0.200	-0.645140
4.480000	0.200	-0.625567
4.483333	0.200	-0.605248
4.486667	0.200	-0.584420
4.490000	0.200	-0.563110
4.493333	0.200	-0.541308
4.496667	0.200	-0.519251
4.500000	0.200	-0.497523
4.503333	0.200	-0.476847
4.506667	0.200	-0.457828
4.510000	0.200	-0.441027
4.513333	0.200	-0.427177
4.516667	0.200	-0.416947
4.520000	0.200	-0.410557
4.523333	0.200	-0.407804
4.526667	0.200	-0.408389
4.530000	0.200	-0.412056
4.533333	0.200	-0.418293
4.536667	0.200	-0.426022
4.540000	0.200	-0.433837
4.543333	0.200	-0.440588
4.546667	0.200	-0.445609
4.550000	0.200	-0.448655
4.553333	0.200	-0.450135
4.556667	0.200	-0.451155
4.560000	0.200	-0.452888
4.563333	0.200	-0.455995
4.566667	0.200	-0.460422
4.570000	0.200	-0.465487
4.573333	0.200	-0.470607
4.576667	0.200	-0.476194
4.580000	0.200	-0.483574
4.583333	0.200	-0.493798
4.586667	0.200	-0.506764
4.590000	0.200	-0.521526
4.593333	0.200	-0.537028
4.596667	0.200	-0.552654
4.600000	0.200	-0.568466
4.603333	0.200	-0.584791
4.606667	0.200	-0.601533
4.610000	0.200	-0.617918
4.613333	0.200	-0.633018
4.616667	0.200	-0.646585
4.620000	0.200	-0.658991
4.623333	0.200	-0.670359
4.626667	0.200	-0.680107
4.630000	0.200	-0.687304
4.633333	0.200	-0.691412
4.636667	0.200	-0.692724
4.640000	0.200	-0.691796
4.643333	0.200	-0.688420
4.646667	0.200	-0.681727
4.650000	0.200	-0.671222
4.653333	0.200	-0.657133
4.656667	0.200	-0.639903
4.660000	0.200	-0.619764
4.663333	0.200	-0.596743
4.666667	0.200	-0.570843
4.670000	0.200	-0.542079
4.673333	0.200	-0.510656
4.676667	0.200	-0.477315
4.680000	0.200	-0.443341
4.683333	0.200	-0.410320
4.686667	0.200	-0.380136
4.690000	0.200	-0.355041
4.693333	0.200	-0.337147
4.696667	0.200	-0.327297
4.700000	0.200	-0.324666
4.703333	0.200	-0.327943
4.706667	0.200	-0.336494
4.710000	0.200	-0.350148
4.713333	0.200	-0.368344
4.716667	0.200	-0.389772
4.720000	0.200	-0.412920
4.723333	0.200	-0.437144
4.726667	0.200	-0.462466
4.730000	0.200	-0.487965
4.733333	0.200	-0.511421
4.736667	0.200	-0.530874
4.740000	0.200	-0.545670
4.743333	0.200	-0.555988
4.746667	0.200	-0.562252
4.750000	0.200	-0.564999
4.753333	0.200	-0.564620
4.756667	0.200	-0.561319
4.760000	0.200	-0.555632
4.763333	0.200	-0.548675
4.766667	0.200	-0.541607
4.770000	0.200	-0.534931
4.773333	0.200	-0.528670
4.776667	0.200	-0.523193
4.780000	0.200	-0.519180
4.783333	0.200	-0.516847
4.786667	0.200	-0.515835
4.790000	0.200	-0.515657
4.793333	0.200	-0.515902
4.796667	0.200	-0.516165
4.800000	0.200	-0.515891
4.803333	0.200	-0.514278
4.806667	0.200	-0.510406
4.810000	0.200	-0.503368
4.813333	0.200	-0.492003
4.816667	0.200	-0.474631
4.820000	0.200	-0.449609
4.823333	0.200	-0.416517
4.826667	0.200	-0.376635
4.830000	0.200	-0.332352
4.833333	0.200	-0.286180
4.836667	0.200	-0.240003
4.840000	0.200	-0.195365
4.843333	0.200	-0.154259
4.846667	0.200	-0.118947
4.850000	0.200	-0.091327
4.853333	0.200	-0.072704
4.856667	0.200	-0.063754
4.860000	0.200	-0.064744
4.863333	0.200	-0.075812
4.866667	0.200	-0.096733
4.870000	0.200	-0.126452
4.873333	0.200	-0.163010
4.876667	0.200	-0.204083
4.880000	0.200	-0.247640
4.883333	0.200	-0.291879
4.886667	0.200	-0.335010
4.890000	0.200	-0.375710
4.893333	0.200	-0.413082
4.896667	0.200	-0.446118
4.900000	0.200	-0.474171
4.903333	0.200	-0.497614
4.906667	0.200	-0.517536
4.910000	0.200	-0.535021
4.913333	0.200	-0.550525
4.916667	0.200	-0.563845
4.920000	0.200	-0.574740
4.923333	0.200	-0.583421
4.926667	0.200	-0.590351
4.930000	0.200	-0.595676
4.933333	0.200	-0.598979
4.936667	0.200	-0.599656
4.940000	0.200	-0.597557
4.943333	0.200	-0.593265
4.946667	0.200	-0.587808
4.950000	0.200	-0.582075
4.953333	0.200	-0.576539
4.956667	0.200	-0.571310
4.960000	0.200	-0.566123
4.963333	0.200	-0.560456
4.966667	0.200	-0.554048
4.970000	0.200	-0.547083
4.973333	0.200	-0.539808
4.976667	0.200	-0.532372
4.980000	0.200	-0.524835
4.983333	0.200	-0.516986
4.986667	0.200	-0.508646
4.990000	0.200	-0.500219
4.993333	0.200	-0.492431
4.996667	0.200	-0.485734
5.000000	0.200	-0.480188
5.003333	0.200	-0.475523
5.006667	0.200	-0.471595
5.010000	0.200	-0.468712
5.013333	0.200	-0.466785
5.016667	0.200	-0.464205
5.020000	0.200	-0.457950
5.023333	0.200	-0.444927
5.026667	0.200	-0.423119
5.030000	0.200	-0.391507
5.033333	0.200	-0.349326
5.036667	0.200	-0.295735
5.040000	0.200	-0.230198
5.043333	0.200	-0.152851
5.046667	0.200	-0.064727
5.050000	0.200	0.031651
5.053333	0.200	0.131746
5.056667	0.200	0.229280
5.060000	0.200	0.317084
5.063333	0.200	0.388087
5.066667	0.200	0.436767
5.070000	0.200	0.460463
5.073333	0.200	0.459359
5.076667	0.200	0.435551
5.080000	0.200	0.392240
5.083333	0.200	0.333498
5.086667	0.200	0.264183
5.090000	0.200	0.189516
5.093333	0.200	0.114555
5.096667	0.200	0.043556
5.100000	0.200	-0.020660
5.103333	0.200	-0.076890
5.106667	0.200	-0.125535
5.110000	0.200	-0.168229
5.113333	0.200	-0.206702
5.116667	0.200	-0.241704
5.120000	0.200	-0.272943
5.123333	0.200	-0.299602
5.126667	0.200	-0.320726
5.130000	0.200	-0.335579
5.133333	0.200	-0.343805
5.136667	0.200	-0.345245
5.140000	0.200	-0.339698
5.143333	0.200	-0.326597
5.146667	0.200	-0.304740
5.150000	0.200	-0.272504
5.153333	0.200	-0.228653
5.156667	0.200	-0.173415
5.160000	0.200	-0.108596
5.163333	0.200	-0.036672
5.166667	0.200	0.039577
5.170000	0.200	0.116758
5.173333	0.200	0.190971
5.176667	0.200	0.258345
5.180000	0.200	0.315456
5.183333	0.200	0.359541
5.186667	0.200	0.388664
5.190000	0.200	0.401825
5.193333	0.200	0.398894
5.196667	0.200	0.380541
5.200000	0.200	0.348237
5.203333	0.200	0.304073
5.206667	0.200	0.250313
5.210000	0.200	0.189030
5.213333	0.200	0.122074
5.216667	0.200	0.051635
5.220000	0.200	-0.019301
5.223333	0.200	-0.087551
5.226667	0.200	-0.150382
5.230000	0.200	-0.205698
5.233333	0.200	-0.252452
5.236667	0.200	-0.290547
5.240000	0.200	-0.319455
5.243333	0.200	-0.336514
5.246667	0.200	-0.335788
5.250000	0.200	-0.307659
5.253333	0.200	-0.239203
5.256667	0.200	-0.115874
5.260000	0.200	0.074939
5.263333	0.200	0.339278
5.266667	0.200	0.672206
5.270000	0.200	1.054371
5.273333	0.200	1.451239
5.276667	0.200	1.817004
5.280000	0.200	2.103227
5.283333	0.200	2.270024
5.286667	0.200	2.295810
5.290000	0.200	2.182086
5.293333	0.200	1.952047
5.296667	0.200	1.643574
5.300000	0.200	1.299477
5.303333	0.200	0.958625
5.306667	0.200	0.649971
5.310000	0.200	0.390043
5.313333	0.200	0.183775
5.316667	0.200	0.027393
5.320000	0.200	-0.088164
5.323333	0.200	-0.173462
5.326667	0.200	-0.237115
5.330000	0.200	-0.284563
5.333333	0.200	-0.319033
5.336667	0.200	-0.343022
5.340000	0.200	-0.359187
5.343333	0.200	-0.370315
5.346667	0.200	-0.378864
5.350000	0.200	-0.386762
5.353333	0.200	-0.395187
5.356667	0.200	-0.404259
5.360000	0.200	-0.413294
5.363333	0.200	-0.421375
5.366667	0.200	-0.427803
5.370000	0.200	-0.432457
5.373333	0.200	-0.435655
5.376667	0.200	-0.437771
5.380000	0.200	-0.439242
5.383333	0.200	-0.440499
5.386667	0.200	-0.441570
5.390000	0.200	-0.442114
5.393333	0.200	-0.442032
5.396667	0.200	-0.441711
5.400000	0.200	-0.441542
5.403333	0.200	-0.441498
5.406667	0.200	-0.441266
5.410000	0.200	-0.440563
5.413333	0.200	-0.439246
5.416667	0.200	-0.437274
5.420000	0.200	-0.434728
5.423333	0.200	-0.431932
5.426667	0.200	-0.429273
5.430000	0.200	-0.426831
5.433333	0.200	-0.424748
5.436667	0.200	-0.423757
5.440000	0.200	-0.424558
5.443333	0.200	-0.426905
5.446667	0.200	-0.429761
5.450000	0.200	-0.432090
5.453333	0.200	-0.433429
5.456667	0.200	-0.433978
5.460000	0.200	-0.434177
5.463333	0.200	-0.434252
5.466667	0.200	-0.434302
5.470000	0.200	-0.434444
5.473333	0.200	-0.434641
5.476667	0.200	-0.434710
5.480000	0.200	-0.434284
5.483333	0.200	-0.432549
5.486667	0.200	-0.428688
5.490000	0.200	-0.422752
5.493333	0.200	-0.415722
5.496667	0.200	-0.408828
5.500000	0.200	-0.402874
5.503333	0.200	-0.398134
5.506667	0.200	-0.394673
5.510000	0.200	-0.392520
5.513333	0.200	-0.391637
5.516667	0.200	-0.391624
5.520000	0.200	-0.391460
5.523333	0.200	-0.390204
5.526667	0.200	-0.388161
5.530000	0.200	-0.386723
5.533333	0.200	-0.386640
5.536667	0.200	-0.386926
5.540000	0.200	-0.385733
5.543333	0.200	-0.381646
5.546667	0.200	-0.374258
5.550000	0.200	-0.364349
5.553333	0.200	-0.353338
5.556667	0.200	-0.342519
5.560000	0.200	-0.332978
5.563333	0.200	-0.325552
5.566667	0.200	-0.320436
5.570000	0.200	-0.317199
5.573333	0.200	-0.315376
5.576667	0.200	-0.314806
5.580000	0.200	-0.315294
5.583333	0.200	-0.316333
5.586667	0.200	-0.317210
5.590000	0.200	-0.317262
5.593333	0.200	-0.316122
5.596667	0.200	-0.313839
5.600000	0.200	-0.310862
5.603333	0.200	-0.307826
5.606667	0.200	-0.305467
5.610000	0.200	-0.304730
5.613333	0.200	-0.306552
5.616667	0.200	-0.311306
5.620000	0.200	-0.318202
5.623333	0.200	-0.325263
5.626667	0.200	-0.330568
5.630000	0.200	-0.333366
5.633333	0.200	-0.333623
5.636667	0.200	-0.331111
5.640000	0.200	-0.325504
5.643333	0.200	-0.317146
5.646667	0.200	-0.307409
5.650000	0.200	-0.298239
5.653333	0.200	-0.291348
5.656667	0.200	-0.287607
5.660000	0.200	-0.286869
5.663333	0.200	-0.288294
5.666667	0.200	-0.291141
5.670000	0.200	-0.295262
5.673333	0.200	-0.300715
5.676667	0.200	-0.307135
5.680000	0.200	-0.313783
5.683333	0.200	-0.320189
5.686667	0.200	-0.326291
5.690000	0.200	-0.331888
5.693333	0.200	-0.336614
5.696667	0.200	-0.340511
5.700000	0.200	-0.344153
5.703333	0.200	-0.348087
5.706667	0.200	-0.352141
5.710000	0.200	-0.355331
5.713333	0.200	-0.356591
5.716667	0.200	-0.355420
5.720000	0.200	-0.351822
5.723333	0.200	-0.345986
5.726667	0.200	-0.337991
5.730000	0.200	-0.327702
5.733333	0.200	-0.315109
5.736667	0.200	-0.300538
5.740000	0.200	-0.284395
5.743333	0.200	-0.267077
5.746667	0.200	-0.249330
5.750000	0.200	-0.232270
5.753333	0.200	-0.217092
5.756667	0.200	-0.204970
5.760000	0.200	-0.196564
5.763333	0.200	-0.191596
5.766667	0.200	-0.189581
5.770000	0.200	-0.190419
5.773333	0.200	-0.193972
5.776667	0.200	-0.199799
5.780000	0.200	-0.207436
5.783333	0.200	-0.216650
5.786667	0.200	-0.227287
5.790000	0.200	-0.238782
5.793333	0.200	-0.250329
5.796667	0.200	-0.261366
5.800000	0.200	-0.271347
5.803333	0.200	-0.279764
5.806667	0.200	-0.286520
5.810000	0.200	-0.291763
5.813333	0.200	-0.295735
5.816667	0.200	-0.298839
5.820000	0.200	-0.301684
5.823333	0.200	-0.304964
5.826667	0.200	-0.308973
5.830000	0.200	-0.313451
5.833333	0.200	-0.318187
5.836667	0.200	-0.323042
5.840000	0.200	-0.327440
5.843333	0.200	-0.330710
5.846667	0.200	-0.332907
5.850000	0.200	-0.334816
5.853333	0.200	-0.336983
5.856667	0.200	-0.338952
5.860000	0.200	-0.339784
5.863333	0.200	-0.338980
5.866667	0.200	-0.336770
5.870000	0.200	-0.333806
5.873333	0.200	-0.330500
5.876667	0.200	-0.326754
5.880000	0.200	-0.322112
5.883333	0.200	-0.315698
5.886667	0.200	-0.306457
5.890000	0.200	-0.293729
5.893333	0.200	-0.277778
5.896667	0.200	-0.260090
5.900000	0.200	-0.242596
5.903333	0.200	-0.226500
5.906667	0.200	-0.212143
5.910000	0.200	-0.199793
5.913333	0.200	-0.190342
5.916667	0.200	-0.184795
5.920000	0.200	-0.183105
5.923333	0.200	-0.184142
5.926667	0.200	-0.186658
5.930000	0.200	-0.189998
5.933333	0.200	-0.194199
5.936667	0.200	-0.199527
5.940000	0.200	-0.206054
5.943333	0.200	-0.213730
5.946667	0.200	-0.222187
5.950000	0.200	-0.230445
5.953333	0.200	-0.237444
5.956667	0.200	-0.243048
5.960000	0.200	-0.248014
5.963333	0.200	-0.252982
5.966667	0.200	-0.258010
5.970000	0.200	-0.262694
5.973333	0.200	-0.266433
5.976667	0.200	-0.268962
5.980000	0.200	-0.270402
5.983333	0.200	-0.270724
5.986667	0.200	-0.269773
5.990000	0.200	-0.267586
5.993333	0.200	-0.264398
5.996667	0.200	-0.260828
6.000000	0.200	-0.257615
6.003333	0.200	-0.254717
6.006667	0.200	-0.251407
6.010000	0.200	-0.247338
6.013333	0.200	-0.242857
6.016667	0.200	-0.238475
6.020000	0.200	-0.234485
6.023333	0.200	-0.231007
6.026667	0.200	-0.228021
6.030000	0.200	-0.225116
6.033333	0.200	-0.221466
6.036667	0.200	-0.216099
6.040000	0.200	-0.208107
6.043333	0.200	-0.196827
6.046667	0.200	-0.181940
6.050000	0.200	-0.163534
6.053333	0.200	-0.142012
6.056667	0.200	-0.117893
6.060000	0.200	-0.091756
6.063333	0.200	-0.064267
6.066667	0.200	-0.036268
6.070000	0.200	-0.008823
6.073333	0.200	0.016629
6.076667	0.200	0.038276
6.080000	0.200	0.054709
6.083333	0.200	0.065566
6.086667	0.200	0.070995
6.090000	0.200	0.071005
6.093333	0.200	0.065910
6.096667	0.200	0.056944
6.100000	0.200	0.045833
6.103333	0.200	0.033922
6.106667	0.200	0.022203
6.110000	0.200	0.011999
6.113333	0.200	0.004877
6.116667	0.200	0.001819
6.120000	0.200	0.002880
6.123333	0.200	0.007286
6.126667	0.200	0.013381
6.130000	0.200	0.018933
6.133333	0.200	0.022001
6.136667	0.200	0.021364
6.140000	0.200	0.016421
6.143333	0.200	0.007214
6.146667	0.200	-0.005447
6.150000	0.200	-0.020223
6.153333	0.200	-0.035811
6.156667	0.200	-0.051229
6.160000	0.200	-0.065741
6.163333	0.200	-0.079020
6.166667	0.200	-0.091219
6.170000	0.200	-0.102609
6.173333	0.200	-0.113497
6.176667	0.200	-0.124280
6.180000	0.200	-0.135299
6.183333	0.200	-0.146782
6.186667	0.200	-0.158652
6.190000	0.200	-0.170335
6.193333	0.200	-0.181078
6.196667	0.200	-0.190484
6.200000	0.200	-0.198690
6.203333	0.200	-0.205912
6.206667	0.200	-0.211964
6.210000	0.200	-0.216491
6.213333	0.200	-0.219486
6.216667	0.200	-0.221470
6.220000	0.200	-0.223463
6.223333	0.200	-0.226706
6.226667	0.200	-0.232008
6.230000	0.200	-0.239140
6.233333	0.200	-0.246898
6.236667	0.200	-0.253890
6.240000	0.200	-0.259274
6.243333	0.200	-0.262701
6.246667	0.200	-0.263980
6.250000	0.200	-0.263272
6.253333	0.200	-0.261350
6.256667	0.200	-0.259126
6.260000	0.200	-0.256947
6.263333	0.200	-0.254411
6.266667	0.200	-0.250825
6.270000	0.200	-0.246211
6.273333	0.200	-0.241791
6.276667	0.200	-0.239031
6.280000	0.200	-0.238350
6.283333	0.200	-0.239068
6.286667	0.200	-0.240323
6.290000	0.200	-0.241640
6.293333	0.200	-0.242737
6.296667	0.200	-0.243355
6.300000	0.200	-0.243654
6.303333	0.200	-0.244382
6.306667	0.200	-0.246101
6.310000	0.200	-0.248440
6.313333	0.200	-0.250449
6.316667	0.200	-0.251415
6.320000	0.200	-0.251163
6.323333	0.200	-0.249962
6.326667	0.200	-0.248138
6.330000	0.200	-0.245637
6.333333	0.200	-0.242167
6.336667	0.200	-0.237734
6.340000	0.200	-0.233063
6.343333	0.200	-0.229355
6.346667	0.200	-0.227391
6.350000	0.200	-0.227164
6.353333	0.200	-0.228249
6.356667	0.200	-0.230194
6.360000	0.200	-0.232732
6.363333	0.200	-0.235639
6.366667	0.200	-0.238611
6.370000	0.200	-0.241648
6.373333	0.200	-0.245060
6.376667	0.200	-0.248675
6.380000	0.200	-0.251690
6.383333	0.200	-0.253578
6.386667	0.200	-0.254507
6.390000	0.200	-0.254685
6.393333	0.200	-0.253727
6.396667	0.200	-0.251084
6.400000	0.200	-0.247056
6.403333	0.200	-0.242759
6.406667	0.200	-0.238918
6.410000	0.200	-0.235100
6.413333	0.200	-0.230164
6.416667	0.200	-0.223207
6.420000	0.200	-0.213772
6.423333	0.200	-0.201468
6.426667	0.200	-0.186032
6.430000	0.200	-0.167527
6.433333	0.200	-0.146276
6.436667	0.200	-0.122864
6.440000	0.200	-0.098104
6.443333	0.200	-0.073015
6.446667	0.200	-0.048860
6.450000	0.200	-0.026828
6.453333	0.200	-0.007972
6.456667	0.200	0.006132
6.460000	0.200	0.013623
6.463333	0.200	0.013490
6.466667	0.200	0.005692
6.470000	0.200	-0.009340
6.473333	0.200	-0.030316
6.476667	0.200	-0.054751
6.480000	0.200	-0.080078
6.483333	0.200	-0.104974
6.486667	0.200	-0.129091
6.490000	0.200	-0.151884
6.493333	0.200	-0.172402
6.496667	0.200	-0.190015
6.500000	0.200	-0.204774
6.503333	0.200	-0.217075
6.506667	0.200	-0.227199
6.510000	0.200	-0.235253
6.513333	0.200	-0.241495
6.516667	0.200	-0.246436
6.520000	0.200	-0.250701
6.523333	0.200	-0.254978
6.526667	0.200	-0.259668
6.530000	0.200	-0.264438
6.533333	0.200	-0.268692
6.536667	0.200	-0.272402
6.540000	0.200	-0.275828
6.543333	0.200	-0.278749
6.546667	0.200	-0.280719
6.550000	0.200	-0.281763
6.553333	0.200	-0.282406
6.556667	0.200	-0.283455
6.560000	0.200	-0.285530
6.563333	0.200	-0.288339
6.566667	0.200	-0.290760
6.570000	0.200	-0.291839
6.573333	0.200	-0.291553
6.576667	0.200	-0.290638
6.580000	0.200	-0.289805
6.583333	0.200	-0.289236
6.586667	0.200	-0.288760
6.590000	0.200	-0.288202
6.593333	0.200	-0.287398
6.596667	0.200	-0.286326
6.600000	0.200	-0.285533
6.603333	0.200	-0.285804
6.606667	0.200	-0.287156
6.610000	0.200	-0.288722
6.613333	0.200	-0.289805
6.616667	0.200	-0.290627
6.620000	0.200	-0.291637
6.623333	0.200	-0.292617
6.626667	0.200	-0.293070
6.630000	0.200	-0.292927
6.633333	0.200	-0.292433
6.636667	0.200	-0.291920
6.640000	0.200	-0.291761
6.643333	0.200	-0.291987
6.646667	0.200	-0.291934
6.650000	0.200	-0.290802
6.653333	0.200	-0.288493
6.656667	0.200	-0.285357
6.660000	0.200	-0.281531
6.663333	0.200	-0.277103
6.666667	0.200	-0.272477
6.670000	0.200	-0.268060
6.673333	0.200	-0.263901
6.676667	0.200	-0.260077
6.680000	0.200	-0.257316
6.683333	0.200	-0.256604
6.686667	0.200	-0.257910
6.690000	0.200	-0.260017
6.693333	0.200	-0.261895
6.696667	0.200	-0.263724
6.700000	0.200	-0.266303
6.703333	0.200	-0.269704
6.706667	0.200	-0.272929
6.710000	0.200	-0.274859
6.713333	0.200	-0.275322
6.716667	0.200	-0.275147
6.720000	0.200	-0.275084
6.723333	0.200	-0.274989
6.726667	0.200	-0.274095
6.730000	0.200	-0.271559
6.733333	0.200	-0.266747
6.736667	0.200	-0.259329
6.740000	0.200	-0.249402
6.743333	0.200	-0.237884
6.746667	0.200	-0.226737
6.750000	0.200	-0.218083
6.753333	0.200	-0.212868
6.756667	0.200	-0.210668
6.760000	0.200	-0.210554
6.763333	0.200	-0.211773
6.766667	0.200	-0.213921
6.770000	0.200	-0.216895
6.773333	0.200	-0.220668
6.776667	0.200	-0.225256
6.780000	0.200	-0.230846
6.783333	0.200	-0.237362
6.786667	0.200	-0.243873
6.790000	0.200	-0.249282
6.793333	0.200	-0.253483
6.796667	0.200	-0.257021
6.800000	0.200	-0.260057
6.803333	0.200	-0.262267
6.806667	0.200	-0.263348
6.810000	0.200	-0.263351
6.813333	0.200	-0.262735
6.816667	0.200	-0.262180
6.820000	0.200	-0.262290
6.823333	0.200	-0.263396
6.826667	0.200	-0.265468
6.830000	0.200	-0.268122
6.833333	0.200	-0.270768
6.836667	0.200	-0.272813
6.840000	0.200	-0.273800
6.843333	0.200	-0.273807
6.846667	0.200	-0.273851
6.850000	0.200	-0.275152
6.853333	0.200	-0.277829
6.856667	0.200	-0.280795
6.860000	0.200	-0.282779
6.863333	0.200	-0.283287
6.866667	0.200	-0.282666
6.870000	0.200	-0.281410
6.873333	0.200	-0.279448
6.876667	0.200	-0.275696
6.880000	0.200	-0.267821
6.883333	0.200	-0.251929
6.886667	0.200	-0.221525
6.890000	0.200	-0.165336
6.893333	0.200	-0.064573
6.896667	0.200	0.110119
6.900000	0.200	0.402524
6.903333	0.200	0.875065
6.906667	0.200	1.612001
6.910000	0.200	2.720872
6.913333	0.200	4.331500
6.916667	0.200	6.591064
6.920000	0.200	9.653460
6.923333	0.200	13.662255
6.926667	0.200	18.728063
6.930000	0.200	24.903094
6.933333	0.200	32.157534
6.936667	0.200	40.361586
6.940000	0.200	49.276123
6.943333	0.200	58.556324
6.946667	0.200	67.770620
6.950000	0.200	76.433482
6.953333	0.200	84.049203
6.956667	0.200	90.161400
6.960000	0.200	94.401346
6.963333	0.200	96.528153
6.966667	0.200	96.453315
6.970000	0.200	94.245534
6.973333	0.200	90.117502
6.976667	0.200	84.397635
6.980000	0.200	77.490021
6.983333	0.200	69.828853
6.986667	0.200	61.835642
6.990000	0.200	53.885391
6.993333	0.200	46.283781
6.996667	0.200	39.254934
7.000000	0.200	32.939462
7.003333	0.200	27.401952
7.006667	0.200	22.644823
7.010000	0.200	18.625397
7.013333	0.200	15.273136
7.016667	0.200	12.503936
7.020000	0.200	10.230757
7.023333	0.200	8.371338
7.026667	0.200	6.852679
7.030000	0.200	5.612193
7.033333	0.200	4.597105
7.036667	0.200	3.763965
7.040000	0.200	3.078093
7.043333	0.200	2.512112
7.046667	0.200	2.044165
7.050000	0.200	1.656755
7.053333	0.200	1.335970
7.056667	0.200	1.070523
7.060000	0.200	0.850927
7.063333	0.200	0.669204
7.066667	0.200	0.518773
7.070000	0.200	0.394278
7.073333	0.200	0.291504
7.076667	0.200	0.207286
7.080000	0.200	0.139006
7.083333	0.200	0.083971
7.086667	0.200	0.039428
7.090000	0.200	0.002949
7.093333	0.200	-0.027515
7.096667	0.200	-0.053775
7.100000	0.200	-0.077178
7.103333	0.200	-0.098240
7.106667	0.200	-0.116701
7.110000	0.200	-0.132077
7.113333	0.200	-0.144415
7.116667	0.200	-0.154427
7.120000	0.200	-0.162876
7.123333	0.200	-0.170385
7.126667	0.200	-0.177698
7.130000	0.200	-0.185333
7.133333	0.200	-0.192997
7.136667	0.200	-0.199721
7.140000	0.200	-0.204776
7.143333	0.200	-0.208457
7.146667	0.200	-0.211827
7.150000	0.200	-0.215638
7.153333	0.200	-0.219617
7.156667	0.200	-0.222993
7.160000	0.200	-0.225552
7.163333	0.200	-0.227808
7.166667	0.200	-0.230321
7.170000	0.200	-0.233227
7.173333	0.200	-0.236356
7.176667	0.200	-0.239560
7.180000	0.200	-0.242799
7.183333	0.200	-0.245969
7.186667	0.200	-0.248943
7.190000	0.200	-0.251811
7.193333	0.200	-0.254850
7.196667	0.200	-0.258268
7.200000	0.200	-0.262050
7.203333	0.200	-0.265907
7.206667	0.200	-0.269476
7.210000	0.200	-0.272691
7.213333	0.200	-0.275684
7.216667	0.200	-0.278220
7.220000	0.200	-0.279625
7.223333	0.200	-0.279313
7.226667	0.200	-0.277044
7.230000	0.200	-0.272627
7.233333	0.200	-0.265269
7.236667	0.200	-0.253241
7.240000	0.200	-0.234682
7.243333	0.200	-0.208364
7.246667	0.200	-0.172974
7.250000	0.200	-0.126240
7.253333	0.200	-0.065262
7.256667	0.200	0.012522
7.260000	0.200	0.108431
7.263333	0.200	0.222097
7.266667	0.200	0.351738
7.270000	0.200	0.494858
7.273333	0.200	0.648458
7.276667	0.200	0.808530
7.280000	0.200	0.969687
7.283333	0.200	1.125370
7.286667	0.200	1.268547
7.290000	0.200	1.392297
7.293333	0.200	1.490089
7.296667	0.200	1.556479
7.300000	0.200	1.587869
7.303333	0.200	1.582597
7.306667	0.200	1.541214
7.310000	0.200	1.466945
7.313333	0.200	1.365117
7.316667	0.200	1.242239
7.320000	0.200	1.105678
7.323333	0.200	0.962913
7.326667	0.200	0.820251
7.330000	0.200	0.682308
7.333333	0.200	0.552212
7.336667	0.200	0.431789
7.340000	0.200	0.321831
7.343333	0.200	0.222636
7.346667	0.200	0.134578
7.350000	0.200	0.058349
7.353333	0.200	-0.005551
7.356667	0.200	-0.057828
7.360000	0.200	-0.100531
7.363333	0.200	-0.135861
7.366667	0.200	-0.165220
7.370000	0.200	-0.189407
7.373333	0.200	-0.209056
7.376667	0.200	-0.224610
7.380000	0.200	-0.236246
7.383333	0.200	-0.244147
7.386667	0.200	-0.248752
7.390000	0.200	-0.250611
7.393333	0.200	-0.249954
7.396667	0.200	-0.246514
7.400000	0.200	-0.239874
7.403333	0.200	-0.230000
7.406667	0.200	-0.217574
7.410000	0.200	-0.203716
7.413333	0.200	-0.189336
7.416667	0.200	-0.175213
7.420000	0.200	-0.162362
7.423333	0.200	-0.151571
7.426667	0.200	-0.142863
7.430000	0.200	-0.135844
7.433333	0.200	-0.130417
7.436667	0.200	-0.127149
7.440000	0.200	-0.127042
7.443333	0.200	-0.130961
7.446667	0.200	-0.139164
7.450000	0.200	-0.151203
7.453333	0.200	-0.166198
7.456667	0.200	-0.183183
7.460000	0.200	-0.201154
7.463333	0.200	-0.218880
7.466667	0.200	-0.234943
7.470000	0.200	-0.248397
7.473333	0.200	-0.259647
7.476667	0.200	-0.270237
7.480000	0.200	-0.281340
7.483333	0.200	-0.292747
7.486667	0.200	-0.303493
7.490000	0.200	-0.312771
7.493333	0.200	-0.319854
7.496667	0.200	-0.324079
7.500000	0.200	-0.325553
7.503333	0.200	-0.325247
7.506667	0.200	-0.324182
7.510000	0.200	-0.323020
7.513333	0.200	-0.322244
7.516667	0.200	-0.322209
7.520000	0.200	-0.322853
7.523333	0.200	-0.323582
7.526667	0.200	-0.323621
7.530000	0.200	-0.322370
7.533333	0.200	-0.319711
7.536667	0.200	-0.316030
7.540000	0.200	-0.311797
7.543333	0.200	-0.307385
7.546667	0.200	-0.303094
7.550000	0.200	-0.299193
7.553333	0.200	-0.295988
7.556667	0.200	-0.293617
7.560000	0.200	-0.291871
7.563333	0.200	-0.290356
7.566667	0.200	-0.288777
7.570000	0.200	-0.287338
7.573333	0.200	-0.286727
7.576667	0.200	-0.287262
7.580000	0.200	-0.288294
7.583333	0.200	-0.288818
7.586667	0.200	-0.288301
7.590000	0.200	-0.287042
7.593333	0.200	-0.286131
7.596667	0.200	-0.286497
7.600000	0.200	-0.287913
7.603333	0.200	-0.289512
7.606667	0.200	-0.290824
7.610000	0.200	-0.291864
7.613333	0.200	-0.292760
7.616667	0.200	-0.293657
7.620000	0.200	-0.294694
7.623333	0.200	-0.295951
7.626667	0.200	-0.297737
7.630000	0.200	-0.300572
7.633333	0.200	-0.304554
7.636667	0.200	-0.309129
7.640000	0.200	-0.313583
7.643333	0.200	-0.317529
7.646667	0.200	-0.321010
7.650000	0.200	-0.324351
7.653333	0.200	-0.327820
7.656667	0.200	-0.331259
7.660000	0.200	-0.334238
7.663333	0.200	-0.336729
7.666667	0.200	-0.339334
7.670000	0.200	-0.342698
7.673333	0.200	-0.346892
7.676667	0.200	-0.351396
7.680000	0.200	-0.355598
7.683333	0.200	-0.359207
7.686667	0.200	-0.362118
7.690000	0.200	-0.364172
7.693333	0.200	-0.365125
7.696667	0.200	-0.364723
7.700000	0.200	-0.362993
7.703333	0.200	-0.360530
7.706667	0.200	-0.358012
7.710000	0.200	-0.355014
7.713333	0.200	-0.349089
7.716667	0.200	-0.335297
7.720000	0.200	-0.305711
7.723333	0.200	-0.248849
7.726667	0.200	-0.148381
7.730000	0.200	0.019514
7.733333	0.200	0.288535
7.736667	0.200	0.702332
7.740000	0.200	1.311783
7.743333	0.200	2.169145
7.746667	0.200	3.319029
7.750000	0.200	4.787499
7.753333	0.200	6.570801
7.756667	0.200	8.625937
7.760000	0.200	10.866190
7.763333	0.200	13.163848
7.766667	0.200	15.360925
7.770000	0.200	17.287384
7.773333	0.200	18.783949
7.776667	0.200	19.724782
7.780000	0.200	20.035594
7.783333	0.200	19.704128
7.786667	0.200	18.781068
7.790000	0.200	17.370433
7.793333	0.200	15.611084
7.796667	0.200	13.654853
7.800000	0.200	11.646734
7.803333	0.200	9.709206
7.806667	0.200	7.931978
7.810000	0.200	6.368682
7.813333	0.200	5.039946
7.816667	0.200	3.940691
7.820000	0.200	3.049408
7.823333	0.200	2.336965
7.826667	0.200	1.772712
7.830000	0.200	1.327762
7.833333	0.200	0.976789
7.836667	0.200	0.699149
7.840000	0.200	0.479029
7.843333	0.200	0.304471
7.846667	0.200	0.166404
7.850000	0.200	0.058051
7.853333	0.200	-0.026107
7.856667	0.200	-0.091011
7.860000	0.200	-0.140692
7.863333	0.200	-0.178372
7.866667	0.200	-0.207043
7.870000	0.200	-0.229280
7.873333	0.200	-0.246846
7.876667	0.200	-0.260920
7.880000	0.200	-0.272510
7.883333	0.200	-0.282586
7.886667	0.200	-0.291836
7.890000	0.200	-0.300480
7.893333	0.200	-0.308305
7.896667	0.200	-0.314736
7.900000	0.200	-0.319173
7.903333	0.200	-0.321712
7.906667	0.200	-0.323325
7.910000	0.200	-0.325078
7.913333	0.200	-0.327460
7.916667	0.200	-0.330482
7.920000	0.200	-0.334003
7.923333	0.200	-0.337717
7.926667	0.200	-0.341147
7.930000	0.200	-0.344201
7.933333	0.200	-0.347259
7.936667	0.200	-0.350476
7.940000	0.200	-0.353430
7.943333	0.200	-0.355183
7.946667	0.200	-0.354973
7.950000	0.200	-0.353358
7.953333	0.200	-0.352068
7.956667	0.200	-0.352579
7.960000	0.200	-0.355236
7.963333	0.200	-0.359437
7.966667	0.200	-0.363922
7.970000	0.200	-0.367109
7.973333	0.200	-0.368016
7.976667	0.200	-0.366820
7.980000	0.200	-0.364240
7.983333	0.200	-0.360723
7.986667	0.200	-0.356368
7.990000	0.200	-0.351179
7.993333	0.200	-0.344768
7.996667	0.200	-0.335880
8.000000	0.200	-0.322902
8.003333	0.200	-0.304960
8.006667	0.200	-0.282175
8.010000	0.200	-0.254821
8.013333	0.200	-0.222879
8.016667	0.200	-0.186938
8.020000	0.200	-0.149096
8.023333	0.200	-0.112549
8.026667	0.200	-0.080659
8.030000	0.200	-0.056280
8.033333	0.200	-0.041335
8.036667	0.200	-0.036730
8.040000	0.200	-0.042297
8.043333	0.200	-0.056740
8.046667	0.200	-0.077908
8.050000	0.200	-0.103493
8.053333	0.200	-0.131630
8.056667	0.200	-0.160996
8.060000	0.200	-0.190616
8.063333	0.200	-0.219665
8.066667	0.200	-0.247256
8.070000	0.200	-0.272428
8.073333	0.200	-0.294448
8.076667	0.200	-0.312988
8.080000	0.200	-0.328028
8.083333	0.200	-0.339558
8.086667	0.200	-0.347383
8.090000	0.200	-0.351562
8.093333	0.200	-0.352900
8.096667	0.200	-0.352767
8.100000	0.200	-0.352628
8.103333	0.200	-0.353571
8.106667	0.200	-0.355833
8.110000	0.200	-0.358962
8.113333	0.200	-0.362569
8.116667	0.200	-0.366649
8.120000	0.200	-0.371097
8.123333	0.200	-0.375284
8.126667	0.200	-0.378424
8.130000	0.200	-0.380264
8.133333	0.200	-0.381211
8.136667	0.200	-0.381796
8.140000	0.200	-0.382133
8.143333	0.200	-0.382067
8.146667	0.200	-0.381827
8.150000	0.200	-0.382236
8.153333	0.200	-0.384106
8.156667	0.200	-0.387413
8.160000	0.200	-0.391182
8.163333	0.200	-0.394230
8.166667	0.200	-0.395927
8.170000	0.200	-0.396576
8.173333	0.200	-0.397104
8.176667	0.200	-0.397878
8.180000	0.200	-0.398191
8.183333	0.200	-0.397266
8.186667	0.200	-0.395279
8.190000	0.200	-0.393291
8.193333	0.200	-0.392281
8.196667	0.200	-0.392101
8.200000	0.200	-0.391571
8.203333	0.200	-0.389674
8.206667	0.200	-0.386381
8.210000	0.200	-0.382318
8.213333	0.200	-0.377964
8.216667	0.200	-0.373411
8.220000	0.200	-0.368736
8.223333	0.200	-0.364316
8.226667	0.200	-0.360855
8.230000	0.200	-0.359102
8.233333	0.200	-0.359468
8.236667	0.200	-0.361856
8.240000	0.200	-0.365675
8.243333	0.200	-0.369967
8.246667	0.200	-0.373765
8.250000	0.200	-0.376392
8.253333	0.200	-0.377596
8.256667	0.200	-0.377735
8.260000	0.200	-0.377726
8.263333	0.200	-0.378416
8.266667	0.200	-0.379908
8.270000	0.200	-0.381667
8.273333	0.200	-0.383164
8.276667	0.200	-0.384070
8.280000	0.200	-0.384183
8.283333	0.200	-0.383683
8.286667	0.200	-0.383136
8.290000	0.200	-0.382925
8.293333	0.200	-0.383074
8.296667	0.200	-0.383490
8.300000	0.200	-0.384011
8.303333	0.200	-0.384475
8.306667	0.200	-0.384847
8.310000	0.200	-0.385175
8.313333	0.200	-0.385418
8.316667	0.200	-0.385183
8.320000	0.200	-0.383687
8.323333	0.200	-0.380186
8.326667	0.200	-0.374421
8.330000	0.200	-0.366410
8.333333	0.200	-0.356134
8.336667	0.200	-0.344017
8.340000	0.200	-0.331325
8.343333	0.200	-0.319767
8.346667	0.200	-0.311090
8.350000	0.200	-0.306748
8.353333	0.200	-0.307150
8.356667	0.200	-0.311353
8.360000	0.200	-0.317768
8.363333	0.200	-0.324868
8.366667	0.200	-0.331275
8.370000	0.200	-0.335916
8.373333	0.200	-0.338450
8.376667	0.200	-0.339119
8.380000	0.200	-0.337899
8.383333	0.200	-0.334175
8.386667	0.200	-0.327482
8.390000	0.200	-0.318522
8.393333	0.200	-0.309420
8.396667	0.200	-0.302788
8.400000	0.200	-0.300452
8.403333	0.200	-0.302718
8.406667	0.200	-0.308535
8.410000	0.200	-0.316596
8.413333	0.200	-0.326156
8.416667	0.200	-0.336931
8.420000	0.200	-0.348947
8.423333	0.200	-0.362016
8.426667	0.200	-0.374755
8.430000	0.200	-0.385078
8.433333	0.200	-0.391810
8.436667	0.200	-0.395163
8.440000	0.200	-0.396355
8.443333	0.200	-0.396992
8.446667	0.200	-0.398075
8.450000	0.200	-0.399885
8.453333	0.200	-0.402606
8.456667	0.200	-0.406069
8.460000	0.200	-0.409314
8.463333	0.200	-0.411239
8.466667	0.200	-0.411424
8.470000	0.200	-0.410162
8.473333	0.200	-0.408113
8.476667	0.200	-0.406046
8.480000	0.200	-0.404745
8.483333	0.200	-0.404728
8.486667	0.200	-0.405803
8.490000	0.200	-0.407153
8.493333	0.200	-0.407867
8.496667	0.200	-0.407408
8.500000	0.200	-0.405947
8.503333	0.200	-0.404228
8.506667	0.200	-0.403040
8.510000	0.200	-0.402810
8.513333	0.200	-0.403122
8.516667	0.200	-0.402489
8.520000	0.200	-0.399371
8.523333	0.200	-0.393706
8.526667	0.200	-0.387036
8.530000	0.200	-0.381157
8.533333	0.200	-0.376840
8.536667	0.200	-0.373520
8.540000	0.200	-0.369703
8.543333	0.200	-0.363765
8.546667	0.200	-0.355054
8.550000	0.200	-0.344668
8.553333	0.200	-0.334732
8.556667	0.200	-0.326625
8.560000	0.200	-0.320263
8.563333	0.200	-0.314641
8.566667	0.200	-0.308560
8.570000	0.200	-0.301478
8.573333	0.200	-0.293774
8.576667	0.200	-0.286214
8.580000	0.200	-0.279920
8.583333	0.200	-0.276348
8.586667	0.200	-0.276174
8.590000	0.200	-0.278436
8.593333	0.200	-0.281215
8.596667	0.200	-0.283009
8.600000	0.200	-0.283692
8.603333	0.200	-0.284526
8.606667	0.200	-0.286956
8.610000	0.200	-0.291239
8.613333	0.200	-0.296780
8.616667	0.200	-0.303230
8.620000	0.200	-0.310136
8.623333	0.200	-0.316595
8.626667	0.200	-0.322284
8.630000	0.200	-0.327904
8.633333	0.200	-0.334415
8.636667	0.200	-0.342296
8.640000	0.200	-0.351295
8.643333	0.200	-0.360576
8.646667	0.200	-0.369257
8.650000	0.200	-0.377161
8.653333	0.200	-0.384838
8.656667	0.200	-0.392763
8.660000	0.200	-0.400920
8.663333	0.200	-0.408819
8.666667	0.200	-0.415495
8.670000	0.200	-0.419987
8.673333	0.200	-0.422244
8.676667	0.200	-0.423231
8.680000	0.200	-0.424093
8.683333	0.200	-0.425682
8.686667	0.200	-0.428568
8.690000	0.200	-0.433046
8.693333	0.200	-0.439072
8.696667	0.200	-0.445973
8.700000	0.200	-0.452194
8.703333	0.200	-0.456196
8.706667	0.200	-0.457858
8.710000	0.200	-0.458311
8.713333	0.200	-0.458663
8.716667	0.200	-0.459473
8.720000	0.200	-0.461105
8.723333	0.200	-0.463948
8.726667	0.200	-0.467951
8.730000	0.200	-0.472461
8.733333	0.200	-0.476966
8.736667	0.200	-0.481358
8.740000	0.200	-0.485336
8.743333	0.200	-0.488363
8.746667	0.200	-0.490072
8.750000	0.200	-0.490355
8.753333	0.200	-0.489310
8.756667	0.200	-0.487384
8.760000	0.200	-0.485524
8.763333	0.200	-0.484566
8.766667	0.200	-0.484482
8.770000	0.200	-0.484862
8.773333	0.200	-0.485733
8.776667	0.200	-0.487241
8.780000	0.200	-0.488975
8.783333	0.200	-0.490122
8.786667	0.200	-0.490015
8.790000	0.200	-0.488674
8.793333	0.200	-0.486975
8.796667	0.200	-0.485941
8.800000	0.200	-0.485941
8.803333	0.200	-0.486886
8.806667	0.200	-0.488881
8.810000	0.200	-0.492132
8.813333	0.200	-0.496452
8.816667	0.200	-0.501183
8.820000	0.200	-0.505349
8.823333	0.200	-0.508229
8.826667	0.200	-0.510207
8.830000	0.200	-0.512454
8.833333	0.200	-0.515611
8.836667	0.200	-0.519172
8.840000	0.200	-0.522124
8.843333	0.200	-0.524044
8.846667	0.200	-0.525357
8.850000	0.200	-0.526636
8.853333	0.200	-0.528189
8.856667	0.200	-0.530187
8.860000	0.200	-0.532726
8.863333	0.200	-0.535805
8.866667	0.200	-0.539445
8.870000	0.200	-0.543781
8.873333	0.200	-0.548791
8.876667	0.200	-0.554030
8.880000	0.200	-0.558992
8.883333	0.200	-0.563614
8.886667	0.200	-0.568327
8.890000	0.200	-0.573734
8.893333	0.200	-0.580014
8.896667	0.200	-0.586474
8.900000	0.200	-0.591961
8.903333	0.200	-0.595611
8.906667	0.200	-0.596957
8.910000	0.200	-0.595994
8.913333	0.200	-0.593410
8.916667	0.200	-0.590028
8.920000	0.200	-0.585925
8.923333	0.200	-0.580399
8.926667	0.200	-0.572316
8.930000	0.200	-0.559996
8.933333	0.200	-0.541398
8.936667	0.200	-0.515268
8.940000	0.200	-0.481981
8.943333	0.200	-0.443414
8.946667	0.200	-0.402854
8.950000	0.200	-0.365008
8.953333	0.200	-0.335131
8.956667	0.200	-0.317379
8.960000	0.200	-0.313506
8.963333	0.200	-0.322350
8.966667	0.200	-0.339988
8.970000	0.200	-0.360953
8.973333	0.200	-0.380265
8.976667	0.200	-0.394835
8.980000	0.200	-0.403510
8.983333	0.200	-0.406783
8.986667	0.200	-0.406661
8.990000	0.200	-0.405794
8.993333	0.200	-0.406305
8.996667	0.200	-0.409486
9.000000	0.200	-0.415888
9.003333	0.200	-0.425255
9.006667	0.200	-0.436862
9.010000	0.200	-0.450156
9.013333	0.200	-0.464763
9.016667	0.200	-0.480142
9.020000	0.200	-0.495696
9.023333	0.200	-0.511132
9.026667	0.200	-0.526488
9.030000	0.200	-0.541675
9.033333	0.200	-0.556093
9.036667	0.200	-0.569086
9.040000	0.200	-0.580702
9.043333	0.200	-0.591629
9.046667	0.200	-0.602351
9.050000	0.200	-0.612564
9.053333	0.200	-0.621388
9.056667	0.200	-0.628000
9.060000	0.200	-0.631964
9.063333	0.200	-0.633329
9.066667	0.200	-0.632932
9.070000	0.200	-0.632041
9.073333	0.200	-0.631309
9.076667	0.200	-0.630697
9.080000	0.200	-0.630378
9.083333	0.200	-0.630777
9.086667	0.200	-0.631663
9.090000	0.200	-0.632248
9.093333	0.200	-0.632182
9.096667	0.200	-0.631860
9.100000	0.200	-0.631908
9.103333	0.200	-0.632527
9.106667	0.200	-0.633249
9.110000	0.200	-0.633521
9.113333	0.200	-0.633339
9.116667	0.200	-0.633052
9.120000	0.200	-0.632939
9.123333	0.200	-0.633163
9.126667	0.200	-0.633911
9.130000	0.200	-0.635429
9.133333	0.200	-0.637460
9.136667	0.200	-0.638829
9.140000	0.200	-0.638538
9.143333	0.200	-0.636957
9.146667	0.200	-0.635240
9.150000	0.200	-0.634292
9.153333	0.200	-0.634540
9.156667	0.200	-0.636007
9.160000	0.200	-0.638378
9.163333	0.200	-0.641018
9.166667	0.200	-0.643294
9.170000	0.200	-0.645084
9.173333	0.200	-0.646788
9.176667	0.200	-0.648937
9.180000	0.200	-0.651591
9.183333	0.200	-0.654118
9.186667	0.200	-0.655775
9.190000	0.200	-0.656153
9.193333	0.200	-0.655238
9.196667	0.200	-0.653562
9.200000	0.200	-0.651935
9.203333	0.200	-0.650795
9.206667	0.200	-0.649921
9.210000	0.200	-0.648537
9.213333	0.200	-0.645595
9.216667	0.200	-0.640285
9.220000	0.200	-0.632580
9.223333	0.200	-0.623365
9.226667	0.200	-0.613920
9.230000	0.200	-0.605204
9.233333	0.200	-0.597648
9.236667	0.200	-0.591523
9.240000	0.200	-0.587143
9.243333	0.200	-0.584761
9.246667	0.200	-0.584237
9.250000	0.200	-0.584762
9.253333	0.200	-0.585515
9.256667	0.200	-0.586591
9.260000	0.200	-0.588665
9.263333	0.200	-0.592040
9.266667	0.200	-0.596413
9.270000	0.200	-0.601198
9.273333	0.200	-0.605884
9.276667	0.200	-0.610371
9.280000	0.200	-0.614941
9.283333	0.200	-0.619567
9.286667	0.200	-0.623410
9.290000	0.200	-0.625317
9.293333	0.200	-0.624507
9.296667	0.200	-0.620776
9.300000	0.200	-0.614733
9.303333	0.200	-0.608038
9.306667	0.200	-0.602820
9.310000	0.200	-0.600417
9.313333	0.200	-0.600498
9.316667	0.200	-0.601435
9.320000	0.200	-0.601507
9.323333	0.200	-0.599422
9.326667	0.200	-0.594421
9.330000	0.200	-0.587113
9.333333	0.200	-0.579425
9.336667	0.200	-0.572944
9.340000	0.200	-0.568114
9.343333	0.200	-0.564791
9.346667	0.200	-0.562682
9.350000	0.200	-0.561594
9.353333	0.200	-0.561727
9.356667	0.200	-0.563677
9.360000	0.200	-0.567919
9.363333	0.200	-0.574197
9.366667	0.200	-0.581471
9.370000	0.200	-0.588356
9.373333	0.200	-0.593622
9.376667	0.200	-0.596514
9.380000	0.200	-0.597262
9.383333	0.200	-0.597487
9.386667	0.200	-0.599248
9.390000	0.200	-0.603286
9.393333	0.200	-0.608591
9.396667	0.200	-0.613333
9.400000	0.200	-0.615724
9.403333	0.200	-0.614719
9.406667	0.200	-0.610766
9.410000	0.200	-0.605689
9.413333	0.200	-0.601858
9.416667	0.200	-0.601181
9.420000	0.200	-0.603963
9.423333	0.200	-0.608740
9.426667	0.200	-0.613635
9.430000	0.200	-0.617663
9.433333	0.200	-0.620972
9.436667	0.200	-0.624236
9.440000	0.200	-0.627817
9.443333	0.200	-0.631470
9.446667	0.200	-0.634609
9.450000	0.200	-0.636763
9.453333	0.200	-0.637737
9.456667	0.200	-0.637628
9.460000	0.200	-0.637275
9.463333	0.200	-0.638137
9.466667	0.200	-0.640978
9.470000	0.200	-0.645145
9.473333	0.200	-0.649173
9.476667	0.200	-0.651297
9.480000	0.200	-0.649778
9.483333	0.200	-0.643886
9.486667	0.200	-0.634441
9.490000	0.200	-0.623602
9.493333	0.200	-0.614432
9.496667	0.200	-0.609555
9.500000	0.200	-0.609639
9.503333	0.200	-0.613531
9.506667	0.200	-0.619582
9.510000	0.200	-0.626362
9.513333	0.200	-0.632558
9.516667	0.200	-0.637245
9.520000	0.200	-0.640390
9.523333	0.200	-0.642423
9.526667	0.200	-0.643361
9.530000	0.200	-0.642840
9.533333	0.200	-0.640817
9.536667	0.200	-0.637721
9.540000	0.200	-0.634289
9.543333	0.200	-0.631638
9.546667	0.200	-0.630761
9.550000	0.200	-0.631524
9.553333	0.200	-0.632298
9.556667	0.200	-0.630706
9.560000	0.200	-0.625388
9.563333	0.200	-0.617363
9.566667	0.200	-0.609127
9.570000	0.200	-0.602516
9.573333	0.200	-0.598107
9.576667	0.200	-0.596123
9.580000	0.200	-0.596849
9.583333	0.200	-0.600317
9.586667	0.200	-0.606156
9.590000	0.200	-0.613721
9.593333	0.200	-0.622142
9.596667	0.200	-0.630367
9.600000	0.200	-0.637508
9.603333	0.200	-0.643020
9.606667	0.200	-0.646250
9.610000	0.200	-0.646509
9.613333	0.200	-0.644191
9.616667	0.200	-0.641216
9.620000	0.200	-0.639897
9.623333	0.200	-0.641580
9.626667	0.200	-0.645950
9.630000	0.200	-0.650893
9.633333	0.200	-0.653289
9.636667	0.200	-0.650696
9.640000	0.200	-0.642956
9.643333	0.200	-0.632545
9.646667	0.200	-0.623145
9.650000	0.200	-0.617339
9.653333	0.200	-0.615339
9.656667	0.200	-0.615783
9.660000	0.200	-0.617481
9.663333	0.200	-0.620426
9.666667	0.200	-0.625327
9.670000	0.200	-0.632346
9.673333	0.200	-0.640618
9.676667	0.200	-0.648880
9.680000	0.200	-0.656168
9.683333	0.200	-0.662083
9.686667	0.200	-0.666530
9.690000	0.200	-0.669263
9.693333	0.200	-0.669938
9.696667	0.200	-0.668557
9.700000	0.200	-0.665880
9.703333	0.200	-0.663121
9.706667	0.200	-0.660934
9.710000	0.200	-0.658814
9.713333	0.200	-0.655457
9.716667	0.200	-0.649807
9.720000	0.200	-0.642145
9.723333	0.200	-0.634272
9.726667	0.200	-0.628562
9.730000	0.200	-0.626503
9.733333	0.200	-0.627841
9.736667	0.200	-0.631115
9.740000	0.200	-0.635085
9.743333	0.200	-0.639531
9.746667	0.200	-0.644824
9.750000	0.200	-0.651042
9.753333	0.200	-0.657521
9.756667	0.200	-0.663234
9.760000	0.200	-0.667630
9.763333	0.200	-0.670744
9.766667	0.200	-0.672692
9.770000	0.200	-0.673636
9.773333	0.200	-0.673941
9.776667	0.200	-0.673873
9.780000	0.200	-0.673511
9.783333	0.200	-0.673127
9.786667	0.200	-0.673196
9.790000	0.200	-0.674023
9.793333	0.200	-0.675533
9.796667	0.200	-0.677234
9.800000	0.200	-0.678234
9.803333	0.200	-0.677507
9.806667	0.200	-0.674685
9.810000	0.200	-0.670678
9.813333	0.200	-0.667011
9.816667	0.200	-0.664526
9.820000	0.200	-0.663182
9.823333	0.200	-0.663042
9.826667	0.200	-0.664732
9.830000	0.200	-0.668645
9.833333	0.200	-0.673973
9.836667	0.200	-0.678913
9.840000	0.200	-0.681901
9.843333	0.200	-0.682415
9.846667	0.200	-0.680847
9.850000	0.200	-0.678160
9.853333	0.200	-0.675524
9.856667	0.200	-0.673700
9.860000	0.200	-0.672720
9.863333	0.200	-0.672380
9.866667	0.200	-0.673055
9.870000	0.200	-0.675553
9.873333	0.200	-0.679779
9.876667	0.200	-0.684154
9.880000	0.200	-0.686981
9.883333	0.200	-0.687663
9.886667	0.200	-0.686351
9.890000	0.200	-0.683442
9.893333	0.200	-0.679755
9.896667	0.200	-0.676480
9.900000	0.200	-0.674411
9.903333	0.200	-0.673383
9.906667	0.200	-0.672796
9.910000	0.200	-0.672448
9.913333	0.200	-0.672450
9.916667	0.200	-0.672675
9.920000	0.200	-0.672757
9.923333	0.200	-0.672574
9.926667	0.200	-0.672442
9.930000	0.200	-0.672813
9.933333	0.200	-0.673743
9.936667	0.200	-0.674657
9.940000	0.200	-0.674837
9.943333	0.200	-0.674242
9.946667	0.200	-0.673904
9.950000	0.200	-0.675177
9.953333	0.200	-0.678209
9.956667	0.200	-0.681745
9.960000	0.200	-0.684430
9.963333	0.200	-0.685549
9.966667	0.200	-0.684885
9.970000	0.200	-0.682705
9.973333	0.200	-0.679848
9.976667	0.200	-0.677565
9.980000	0.200	-0.676893
9.983333	0.200	-0.677917
9.986667	0.200	-0.679722
9.990000	0.200	-0.681137
9.993333	0.200	-0.681402
9.996667	0.200	-0.680139
10.000000	0.200	-0.677177
10.003333	0.200	-0.672727
10.006667	0.200	-0.667626
10.010000	0.200	-0.663416
10.013333	0.200	-0.661793
10.016667	0.200	-0.663612
10.020000	0.200	-0.668432
10.023333	0.200	-0.675054
10.026667	0.200	-0.682227
10.030000	0.200	-0.688720
10.033333	0.200	-0.693360
10.036667	0.200	-0.695360
10.040000	0.200	-0.694657
10.043333	0.200	-0.691990
10.046667	0.200	-0.688236
10.050000	0.200	-0.683770
10.053333	0.200	-0.678986
10.056667	0.200	-0.674649
10.060000	0.200	-0.671311
10.063333	0.200	-0.669212
10.066667	0.200	-0.668522
10.070000	0.200	-0.668783
10.073333	0.200	-0.668648
10.076667	0.200	-0.666810
10.080000	0.200	-0.663215
10.083333	0.200	-0.659306
10.086667	0.200	-0.656914
10.090000	0.200	-0.656927
10.093333	0.200	-0.659029
10.096667	0.200	-0.662083
10.100000	0.200	-0.664915
10.103333	0.200	-0.667315
10.106667	0.200	-0.669834
10.110000	0.200	-0.672576
10.113333	0.200	-0.674995
10.116667	0.200	-0.676600
10.120000	0.200	-0.677158
10.123333	0.200	-0.676440
10.126667	0.200	-0.674353
10.130000	0.200	-0.671119
10.133333	0.200	-0.667208
10.136667	0.200	-0.663464
10.140000	0.200	-0.660945
10.143333	0.200	-0.660180
10.146667	0.200	-0.660729
10.150000	0.200	-0.661336
10.153333	0.200	-0.660415
10.156667	0.200	-0.656913
10.160000	0.200	-0.651375
10.163333	0.200	-0.646036
10.166667	0.200	-0.643262
10.170000	0.200	-0.643798
10.173333	0.200	-0.646570
10.176667	0.200	-0.649989
10.180000	0.200	-0.653274
10.183333	0.200	-0.656694
10.186667	0.200	-0.660769
10.190000	0.200	-0.665266
10.193333	0.200	-0.668933
10.196667	0.200	-0.670223
10.200000	0.200	-0.668466
10.203333	0.200	-0.664564
10.206667	0.200	-0.660209
10.210000	0.200	-0.656409
10.213333	0.200	-0.653334
10.216667	0.200	-0.650873
10.220000	0.200	-0.648567
10.223333	0.200	-0.645838
10.226667	0.200	-0.642505
10.230000	0.200	-0.638477
10.233333	0.200	-0.633482
10.236667	0.200	-0.627474
10.240000	0.200	-0.620925
10.243333	0.200	-0.614933
10.246667	0.200	-0.610963
10.250000	0.200	-0.609924
10.253333	0.200	-0.611603
10.256667	0.200	-0.615164
10.260000	0.200	-0.619833
10.263333	0.200	-0.624851
10.266667	0.200	-0.629273
10.270000	0.200	-0.632332
10.273333	0.200	-0.633849
10.276667	0.200	-0.634212
10.280000	0.200	-0.634139
10.283333	0.200	-0.634310
10.286667	0.200	-0.635123
10.290000	0.200	-0.636919
10.293333	0.200	-0.639958
10.296667	0.200	-0.643803
10.300000	0.200	-0.647270
10.303333	0.200	-0.649235
10.306667	0.200	-0.649115
10.310000	0.200	-0.646781
10.313333	0.200	-0.642855
10.316667	0.200	-0.638896
10.320000	0.200	-0.636510
10.323333	0.200	-0.636390
10.326667	0.200	-0.638331
10.330000	0.200	-0.641663
10.333333	0.200	-0.645473
10.336667	0.200	-0.648775
10.340000	0.200	-0.650898
10.343333	0.200	-0.651727
10.346667	0.200	-0.651520
10.350000	0.200	-0.650815
10.353333	0.200	-0.650500
10.356667	0.200	-0.651405
10.360000	0.200	-0.653473
10.363333	0.200	-0.655579
10.366667	0.200	-0.656446
10.370000	0.200	-0.655976
10.373333	0.200	-0.655640
10.376667	0.200	-0.657137
10.380000	0.200	-0.660823
10.383333	0.200	-0.665670
10.386667	0.200	-0.669908
10.390000	0.200	-0.671685
10.393333	0.200	-0.670266
10.396667	0.200	-0.666841
10.400000	0.200	-0.663554
10.403333	0.200	-0.661861
10.406667	0.200	-0.662197
10.410000	0.200	-0.664508
10.413333	0.200	-0.668380
10.416667	0.200	-0.673093
10.420000	0.200	-0.678005
10.423333	0.200	-0.682757
10.426667	0.200	-0.686928
10.430000	0.200	-0.689759
10.433333	0.200	-0.690697
10.436667	0.200	-0.690199
10.440000	0.200	-0.689359
10.443333	0.200	-0.688877
10.446667	0.200	-0.688940
10.450000	0.200	-0.689524
10.453333	0.200	-0.690157
10.456667	0.200	-0.690173
10.460000	0.200	-0.689634
10.463333	0.200	-0.689157
10.466667	0.200	-0.689005
10.470000	0.200	-0.689121
10.473333	0.200	-0.689462
10.476667	0.200	-0.689865
10.480000	0.200	-0.690407
10.483333	0.200	-0.691755
10.486667	0.200	-0.694370
10.490000	0.200	-0.697872
10.493333	0.200	-0.701815
10.496667	0.200	-0.706398
10.500000	0.200	-0.711678
10.503333	0.200	-0.716603
10.506667	0.200	-0.719588
10.510000	0.200	-0.720030
10.513333	0.200	-0.718534
10.516667	0.200	-0.715796
10.520000	0.200	-0.712369
10.523333	0.200	-0.709168
10.526667	0.200	-0.707077
10.530000	0.200	-0.706315
10.533333	0.200	-0.706545
10.536667	0.200	-0.707028
10.540000	0.200	-0.706461
10.543333	0.200	-0.703449
10.546667	0.200	-0.697663
10.550000	0.200	-0.690357
10.553333	0.200	-0.683743
10.556667	0.200	-0.679657
10.560000	0.200	-0.678432
10.563333	0.200	-0.678965
10.566667	0.200	-0.679861
10.570000	0.200	-0.680587
10.573333	0.200	-0.681658
10.576667	0.200	-0.683545
10.580000	0.200	-0.685589
10.583333	0.200	-0.686446
10.586667	0.200	-0.685326
10.590000	0.200	-0.682482
10.593333	0.200	-0.678698
10.596667	0.200	-0.674574
10.600000	0.200	-0.670582
10.603333	0.200	-0.667264
10.606667	0.200	-0.664755
10.610000	0.200	-0.662493
10.613333	0.200	-0.659398
10.616667	0.200	-0.654577
10.620000	0.200	-0.648309
10.623333	0.200	-0.641643
10.626667	0.200	-0.635128
10.630000	0.200	-0.628958
10.633333	0.200	-0.623727
10.636667	0.200	-0.620013
10.640000	0.200	-0.617706
10.643333	0.200	-0.615981
10.646667	0.200	-0.613657
10.650000	0.200	-0.610000
10.653333	0.200	-0.605091
10.656667	0.200	-0.599146
10.660000	0.200	-0.592154
10.663333	0.200	-0.584399
10.666667	0.200	-0.576482
10.670000	0.200	-0.568518
10.673333	0.200	-0.559798
10.676667	0.200	-0.549518
10.680000	0.200	-0.537465
10.683333	0.200	-0.523794
10.686667	0.200	-0.508548
10.690000	0.200	-0.491769
10.693333	0.200	-0.473909
10.696667	0.200	-0.455920
10.700000	0.200	-0.438917
10.703333	0.200	-0.423416
10.706667	0.200	-0.408737
10.710000	0.200	-0.393695
10.713333	0.200	-0.378065
10.716667	0.200	-0.362938
10.720000	0.200	-0.349697
10.723333	0.200	-0.339045
10.726667	0.200	-0.330872
10.730000	0.200	-0.324711
10.733333	0.200	-0.320082
10.736667	0.200	-0.316400
10.740000	0.200	-0.313055
10.743333	0.200	-0.309693
10.746667	0.200	-0.306132
10.750000	0.200	-0.302168
10.753333	0.200	-0.297575
10.756667	0.200	-0.292308
10.760000	0.200	-0.286805
10.763333	0.200	-0.281923
10.766667	0.200	-0.278298
10.770000	0.200	-0.275913
10.773333	0.200	-0.274517
10.776667	0.200	-0.273947
10.780000	0.200	-0.273699
10.783333	0.200	-0.272978
10.786667	0.200	-0.271557
10.790000	0.200	-0.270120
10.793333	0.200	-0.269498
10.796667	0.200	-0.269637
10.800000	0.200	-0.269713
10.803333	0.200	-0.269060
10.806667	0.200	-0.267324
10.810000	0.200	-0.264353
10.813333	0.200	-0.260554
10.816667	0.200	-0.256655
10.820000	0.200	-0.253133
10.823333	0.200	-0.250434
10.826667	0.200	-0.249076
10.830000	0.200	-0.249066
10.833333	0.200	-0.249760
10.836667	0.200	-0.250365
10.840000	0.200	-0.250274
10.843333	0.200	-0.249072
10.846667	0.200	-0.246587
10.850000	0.200	-0.243305
10.853333	0.200	-0.240289
10.856667	0.200	-0.238108
10.860000	0.200	-0.236190
10.863333	0.200	-0.233641
10.866667	0.200	-0.230348
10.870000	0.200	-0.226908
10.873333	0.200	-0.223967
10.876667	0.200	-0.222015
10.880000	0.200	-0.221265
10.883333	0.200	-0.221344
10.886667	0.200	-0.221272
10.890000	0.200	-0.219873
10.893333	0.200	-0.216441
10.896667	0.200	-0.211084
10.900000	0.200	-0.204665
10.903333	0.200	-0.198660
10.906667	0.200	-0.194535
10.910000	0.200	-0.192848
10.913333	0.200	-0.193094
10.916667	0.200	-0.194239
10.920000	0.200	-0.195241
10.923333	0.200	-0.195258
10.926667	0.200	-0.193776
10.930000	0.200	-0.190949
10.933333	0.200	-0.187378
10.936667	0.200	-0.183308
10.940000	0.200	-0.178619
10.943333	0.200	-0.173517
10.946667	0.200	-0.168657
10.950000	0.200	-0.164762
10.953333	0.200	-0.162154
10.956667	0.200	-0.160375
10.960000	0.200	-0.158483
10.963333	0.200	-0.156022
10.966667	0.200	-0.153489
10.970000	0.200	-0.151572
10.973333	0.200	-0.150249
10.976667	0.200	-0.148811
10.980000	0.200	-0.146546
10.983333	0.200	-0.143410
10.986667	0.200	-0.140020
10.990000	0.200	-0.137111
10.993333	0.200	-0.134909
10.996667	0.200	-0.132944
11.000000	0.200	-0.130904
